1.502500072169232093e+00,6.141844184953129115e+00
1.507500072883772191e+00,7.524736310770094860e+00
1.512500073598311845e+00,9.144272826946917121e+00
1.517500074312851721e+00,1.070111769592824658e+01
1.522500075027391375e+00,1.180209162137867906e+01
1.527500075741931251e+00,1.260876216399697114e+01
1.532500076456470905e+00,1.323472160092177319e+01
1.537500077171010782e+00,1.410471781194814866e+01
1.542500077885550436e+00,1.479321631756630495e+01
1.547500078600090090e+00,1.513978726766043792e+01
1.552500079314630188e+00,1.563707543752383344e+01
1.557500080029169620e+00,1.631712227416392125e+01
1.562500080743709496e+00,1.764760615502603969e+01
1.567500081458249372e+00,1.886509436499670755e+01
1.572500082172789027e+00,1.907913857881379727e+01
1.577500082887328903e+00,1.905828562623332800e+01
1.582500083601868335e+00,1.873810363761964481e+01
1.587500084316408433e+00,1.853307171450103397e+01
1.592500085030948087e+00,1.904489293955100493e+01
1.597500085745487741e+00,1.939705860686723327e+01
1.602500086460027617e+00,1.997593711005345085e+01
1.607500087174567494e+00,2.054274295686434471e+01
1.612500087889107148e+00,2.061171061745500310e+01
1.617500088603646802e+00,2.005068048163019512e+01
1.622500089318186678e+00,1.923707422002661360e+01
1.627500090032726332e+00,1.880557546720274331e+01
1.632500090747266430e+00,1.859255733055186965e+01
1.637500091461805862e+00,1.840024256488715082e+01
1.642500092176345738e+00,1.771462961583324613e+01
1.647500092890885615e+00,1.685069527421836710e+01
1.652500093605425047e+00,1.575342008405169736e+01
1.657500094319965145e+00,1.476823513690482059e+01
1.662500095034504799e+00,1.460147130739295562e+01
1.667500095749044675e+00,1.480568031452594369e+01
1.672500096463584329e+00,1.466223361479723053e+01
1.677500097178123983e+00,1.380931314068590154e+01
1.682500097892663860e+00,1.293759002715842144e+01
1.687500098607203736e+00,1.239038331836218276e+01
1.692500099321743390e+00,1.237978547092251347e+01
1.697500100036283044e+00,1.259826515189706697e+01
1.702500100750823142e+00,1.286939357162657416e+01
1.707500101465362574e+00,1.258604640226707261e+01
1.712500102179902450e+00,1.179661594998083274e+01
1.717500102894442326e+00,1.130336932297524299e+01
1.722500103608981981e+00,1.104666475360028244e+01
1.727500104323521857e+00,1.108551191435185501e+01
1.732500105038061289e+00,1.136218985083161215e+01
1.737500105752601387e+00,1.122705778557809708e+01
1.742500106467141041e+00,1.133275068729915347e+01
1.747500107181680695e+00,1.185381429301571643e+01
1.752500107896220571e+00,1.305390482725766788e+01
1.757500108610760448e+00,1.501348066441187257e+01
1.762500109325300102e+00,1.759107553383637423e+01
1.767500110039839756e+00,2.082030170524205914e+01
1.772500110754379632e+00,2.529180800786514283e+01
1.777500111468919286e+00,3.170274883577377523e+01
1.782500112183459384e+00,3.987271433463001813e+01
1.787500112897998816e+00,4.929896722888975091e+01
1.792500113612538692e+00,5.858234615273084955e+01
1.797500114327078569e+00,6.620393802377031989e+01
1.802500115041618223e+00,7.346874260410987745e+01
1.807500115756158099e+00,8.352578359441372413e+01
1.812500116470697753e+00,1.008308161633647728e+02
1.817500117185237629e+00,1.317752332074277888e+02
1.822500117899777283e+00,1.846890560831070616e+02
1.827500118614316937e+00,2.615839766085777569e+02
1.832500119328856814e+00,3.324745851003186772e+02
1.837500120043396690e+00,3.522286816615474550e+02
1.842500120757936344e+00,3.145981599802710207e+02
1.847500121472475998e+00,2.226612070451607792e+02
1.852500122187016096e+00,1.428466561815954492e+02
1.857500122901555528e+00,9.552895776334514721e+01
1.862500123616095404e+00,6.853944020732149056e+01
1.867500124330635058e+00,5.307323136858201451e+01
1.872500125045175157e+00,4.234636304067043966e+01
1.877500125759714811e+00,3.524594796559404131e+01
1.882500126474254243e+00,3.046302285929579057e+01
1.887500127188794341e+00,2.745073933739342920e+01
1.892500127903333995e+00,2.587208731149763707e+01
1.897500128617873427e+00,2.480549192056582797e+01
1.902500129332413525e+00,2.395706329416873359e+01
1.907500130046953402e+00,2.341502160860818549e+01
1.912500130761493056e+00,2.359082868589075588e+01
1.917500131476032710e+00,2.433219459258890538e+01
1.922500132190572586e+00,2.501011377960554682e+01
1.927500132905112240e+00,2.517999790152106243e+01
1.932500133619652338e+00,2.547806864559743190e+01
1.937500134334191770e+00,2.586305695716225728e+01
1.942500135048731869e+00,2.642070744067342503e+01
1.947500135763271523e+00,2.747846342474372250e+01
1.952500136477810955e+00,2.855666936105251352e+01
1.957500137192351053e+00,2.944083645558072249e+01
1.962500137906890707e+00,3.015194907123628809e+01
1.967500138621430139e+00,3.036528797608815466e+01
1.972500139335970237e+00,3.049993840596187056e+01
1.977500140050510113e+00,3.098548318553889658e+01
1.982500140765049768e+00,3.187003496069377206e+01
1.987500141479589422e+00,3.285585021785584559e+01
1.992500142194129298e+00,3.340464545172108046e+01
1.997500142908669396e+00,3.367717236608308440e+01
2.002500143623208384e+00,3.395097300622251169e+01
2.007500144337748704e+00,3.403285535020029329e+01
2.012500145052288580e+00,3.396253711295901212e+01
2.017500145766828012e+00,3.362058642534941555e+01
2.022500146481367889e+00,3.360308614588973342e+01
2.027500147195907765e+00,3.400132746932536065e+01
2.032500147910447641e+00,3.457362389644157474e+01
2.037500148624987073e+00,3.533671138544423229e+01
2.042500149339526949e+00,3.598386969467532026e+01
2.047500150054066825e+00,3.654956472134983869e+01
2.052500150768606257e+00,3.730367458045913054e+01
2.057500151483146134e+00,3.816231724610582887e+01
2.062500152197686010e+00,3.943907125917661460e+01
2.067500152912225886e+00,4.135791518495079799e+01
2.072500153626765762e+00,4.437527961947051836e+01
2.077500154341305194e+00,4.866542927397324547e+01
2.082500155055845070e+00,5.364634188543300297e+01
2.087500155770384946e+00,6.018512203914895053e+01
2.092500156484924378e+00,6.993699043072700761e+01
2.097500157199464255e+00,8.472434270808042811e+01
2.102500157914004575e+00,1.082839723758700643e+02
2.107500158628544007e+00,1.470104179674664238e+02
2.112500159343083439e+00,2.041781615352150538e+02
2.117500160057623759e+00,2.628005153730657071e+02
2.122500160772163191e+00,2.803605790516484149e+02
2.127500161486702623e+00,2.533475858575934581e+02
2.132500162201242500e+00,1.828561764788884147e+02
2.137500162915782820e+00,1.175685462253433116e+02
2.142500163630322252e+00,8.102241988572046694e+01
2.147500164344861684e+00,6.253536813754959667e+01
2.152500165059402004e+00,5.128018596861159040e+01
2.157500165773941436e+00,4.382566416477897064e+01
2.162500166488480868e+00,3.884590938179400155e+01
2.167500167203021189e+00,3.527879141426427623e+01
2.172500167917561065e+00,3.274351522047084018e+01
2.177500168632100497e+00,3.150622761509964675e+01
2.182500169346640373e+00,3.129697283888185666e+01
2.187500170061180249e+00,3.200299090162593529e+01
2.192500170775719681e+00,3.238102837637848097e+01
2.197500171490259557e+00,3.105974929119912531e+01
2.202500172204799433e+00,2.817877321815728919e+01
2.207500172919339310e+00,2.465622288377352334e+01
2.212500173633879186e+00,2.174197734582429575e+01
2.217500174348418618e+00,1.982171862713960309e+01
2.222500175062958494e+00,1.835434016576539307e+01
2.227500175777497926e+00,1.690881205219784533e+01
2.232500176492037802e+00,1.581206921579740765e+01
2.237500177206577678e+00,1.508394795100792862e+01
2.242500177921117555e+00,1.470247522674367247e+01
2.247500178635657431e+00,1.452525540784654368e+01
2.252500179350196863e+00,1.391114384174386487e+01
2.257500180064736739e+00,1.332895047436682034e+01
2.262500180779277059e+00,1.291951260665751988e+01
2.267500181493816047e+00,1.235372712369991177e+01
2.272500182208355923e+00,1.206182906170704427e+01
2.277500182922896244e+00,1.185894092692620916e+01
2.282500183637435676e+00,1.171167426060765138e+01
2.287500184351975108e+00,1.199353125276746823e+01
2.292500185066515428e+00,1.257548091646538069e+01
2.297500185781055304e+00,1.303985679525516161e+01
2.302500186495594292e+00,1.345159719990016356e+01
2.307500187210134612e+00,1.379217465404394716e+01
2.312500187924674488e+00,1.425625727344299776e+01
2.317500188639213921e+00,1.488818337759300903e+01
2.322500189353753797e+00,1.565657697046708563e+01
2.327500190068293673e+00,1.649313558450512573e+01
2.332500190782833549e+00,1.701232632770097553e+01
2.337500191497372981e+00,1.684530922558360544e+01
2.342500192211912857e+00,1.551521188153003550e+01
2.347500192926452733e+00,1.371758602181722608e+01
2.352500193640992165e+00,1.211185036877185439e+01
2.357500194355532042e+00,1.088253942209792058e+01
2.362500195070071918e+00,9.684310785099285113e+00
2.367500195784611794e+00,8.818336768222138744e+00
2.372500196499151670e+00,8.295719918351494471e+00
2.377500197213691102e+00,8.289092141835567418e+00
2.382500197928230978e+00,8.405777548187188586e+00
2.387500198642770854e+00,8.454699190245833051e+00
2.392500199357310287e+00,8.492552161738672112e+00
2.397500200071850163e+00,8.614605601068319629e+00
2.402500200786390039e+00,8.800985652107783608e+00
2.407500201500929915e+00,8.692829030443078864e+00
2.412500202215469347e+00,8.316922917717704422e+00
2.417500202930009223e+00,8.290752570799213572e+00
2.422500203644549099e+00,8.641074321549012893e+00
2.427500204359088531e+00,8.916433889070958685e+00
2.432500205073628408e+00,8.889528441939319237e+00
2.437500205788168728e+00,8.899980037358943719e+00
2.442500206502708160e+00,9.107173757569512418e+00
2.447500207217247592e+00,9.666191549357222357e+00
2.452500207931787912e+00,1.050927584870061082e+01
2.457500208646327344e+00,1.122067699446006372e+01
2.462500209360866776e+00,1.154568643306419062e+01
2.467500210075407097e+00,1.170930127083340722e+01
2.472500210789946973e+00,1.183745840636169078e+01
2.477500211504486405e+00,1.204761070389690758e+01
2.482500212219026281e+00,1.217455707295323464e+01
2.487500212933566157e+00,1.236425350493453834e+01
2.492500213648105589e+00,1.228386556482132619e+01
2.497500214362645465e+00,1.215967122463518990e+01
2.502500215077185342e+00,1.186690461485454762e+01
2.507500215791725218e+00,1.133432755901850442e+01
2.512500216506264650e+00,1.066550643057723846e+01
2.517500217220804526e+00,9.881884664024880749e+00
2.522500217935344402e+00,9.039237834373807345e+00
2.527500218649883834e+00,8.172314771770572861e+00
2.532500219364423710e+00,7.652076332345018272e+00
2.537500220078963586e+00,7.202846278419258397e+00
2.542500220793503463e+00,7.145902588388935328e+00
2.547500221508043339e+00,7.068117594713612561e+00
2.552500222222582771e+00,6.423612037908867478e+00
2.557500222937122647e+00,5.718386415444797422e+00
2.562500223651662967e+00,5.493841490785939641e+00
2.567500224366201955e+00,5.464259984058458031e+00
2.572500225080741831e+00,5.538290948249937173e+00
2.577500225795282152e+00,5.672526430549851284e+00
2.582500226509821584e+00,5.791759041881391568e+00
2.587500227224361016e+00,5.709636254934764565e+00
2.592500227938901336e+00,5.733213627967131742e+00
2.597500228653441212e+00,5.952414034450953295e+00
2.602500229367980644e+00,5.899085281378802392e+00
2.607500230082520076e+00,5.608706653338288106e+00
2.612500230797060397e+00,5.335995603057710923e+00
2.617500231511599829e+00,5.269690467330178762e+00
2.622500232226139261e+00,5.532519950503910877e+00
2.627500232940679581e+00,6.021107910693160647e+00
2.632500233655219457e+00,6.516477511213963680e+00
2.637500234369758889e+00,6.877441114192947680e+00
2.642500235084298765e+00,6.893597107760058407e+00
2.647500235798838641e+00,6.860433666822359555e+00
2.652500236513378074e+00,6.764478900545782381e+00
2.657500237227917950e+00,6.906561351388347703e+00
2.662500237942457826e+00,7.573990171855086828e+00
2.667500238656997702e+00,8.284085398900685959e+00
2.672500239371537578e+00,9.053098853319283990e+00
2.677500240086077010e+00,9.946629179749209015e+00
2.682500240800616886e+00,1.086004787299594909e+01
2.687500241515156763e+00,1.176489820473443615e+01
2.692500242229696195e+00,1.235071040996712100e+01
2.697500242944236071e+00,1.289301316253482810e+01
2.702500243658775947e+00,1.328488875178800299e+01
2.707500244373315823e+00,1.281218060300011530e+01
2.712500245087855255e+00,1.159175621769156805e+01
2.717500245802395131e+00,9.790837008476216852e+00
2.722500246516935007e+00,8.094588631944588997e+00
2.727500247231474440e+00,6.973607561772610097e+00
2.732500247946014316e+00,6.365164986039530959e+00
2.737500248660554636e+00,6.096088888130566374e+00
2.742500249375094068e+00,5.916028207708848186e+00
2.747500250089633500e+00,5.600876913787203648e+00
2.752500250804173820e+00,5.109512286776350720e+00
2.757500251518713252e+00,4.557366696617521029e+00
2.762500252233252684e+00,4.305020132860420290e+00
2.767500252947793005e+00,4.583108652699991126e+00
2.772500253662332881e+00,5.112502604396922834e+00
2.777500254376872313e+00,5.729733874127305171e+00
2.782500255091412189e+00,6.265505408213698502e+00
2.787500255805952065e+00,6.513776907223814305e+00
2.792500256520491497e+00,6.644759211467942350e+00
2.797500257235031373e+00,6.893177241175123982e+00
2.802500257949571250e+00,7.165813942522163416e+00
2.807500258664111126e+00,7.643469516856100654e+00
2.812500259378650558e+00,8.108048823739864019e+00
2.817500260093190434e+00,8.829097026175702467e+00
2.822500260807730310e+00,9.806963653791285651e+00
2.827500261522270186e+00,1.089969469336216434e+01
2.832500262236809618e+00,1.189966222815422725e+01
2.837500262951349495e+00,1.300579344249473479e+01
2.842500263665889371e+00,1.428264655016369034e+01
2.847500264380429247e+00,1.564026919348151523e+01
2.852500265094968679e+00,1.755453535801495946e+01
2.857500265809508555e+00,1.989209654508886160e+01
2.862500266524048875e+00,2.276661346186915580e+01
2.867500267238588307e+00,2.618850577784570532e+01
2.872500267953127739e+00,3.041120456685530371e+01
2.877500268667668060e+00,3.573840328425478674e+01
2.882500269382207492e+00,4.322492446674368693e+01
2.887500270096746924e+00,5.329463965483728316e+01
2.892500270811286800e+00,6.646343081923930640e+01
2.897500271525826676e+00,8.464644133798998382e+01
2.902500272240366552e+00,1.089447581259515800e+02
2.907500272954905984e+00,1.384911757955384246e+02
2.912500273669446305e+00,1.742623609639248343e+02
2.917500274383985737e+00,2.145537668043878625e+02
2.922500275098525169e+00,2.567650029199110122e+02
2.927500275813065489e+00,2.957414491132647640e+02
2.932500276527604921e+00,3.213146911785670454e+02
2.937500277242144797e+00,3.253179933139322202e+02
2.942500277956684673e+00,3.149226323505196206e+02
2.947500278671224549e+00,3.011144602530621341e+02
2.952500279385763982e+00,2.886206008977321744e+02
2.957500280100304302e+00,2.843393817132849790e+02
2.962500280814843734e+00,2.904160172753200868e+02
2.967500281529383166e+00,3.089265692677263928e+02
2.972500282243923486e+00,3.446481491199023708e+02
2.977500282958462918e+00,4.052442817767844190e+02
2.982500283673002794e+00,5.001976449571515104e+02
2.987500284387542226e+00,6.296596174939553521e+02
2.992500285102082547e+00,7.793753281629279854e+02
2.997500285816621979e+00,9.195877694525896686e+02
3.002500286531161411e+00,9.796780563537843136e+02
3.007500287245701731e+00,9.216820889578034439e+02
3.012500287960241163e+00,7.745648444490365137e+02
3.017500288674781039e+00,5.484003087460547476e+02
3.022500289389320915e+00,3.673485883184707177e+02
3.027500290103860792e+00,2.540197407537949061e+02
3.032500290818400224e+00,1.862729080586611872e+02
3.037500291532940100e+00,1.416623310635650910e+02
3.042500292247479976e+00,1.103969136322831446e+02
3.047500292962019408e+00,8.805393726191550741e+01
3.052500293676559728e+00,7.361281352471962691e+01
3.057500294391099160e+00,6.391983626579866495e+01
3.062500295105639037e+00,5.794144698438105934e+01
3.067500295820178913e+00,5.490675192407928762e+01
3.072500296534718789e+00,5.403039194634772002e+01
3.077500297249258221e+00,5.415536479651507307e+01
3.082500297963798097e+00,5.400662617840634994e+01
3.087500298678337973e+00,5.276659024302352918e+01
3.092500299392877405e+00,4.985714252839369465e+01
3.097500300107417281e+00,4.481137457910182320e+01
3.102500300821957158e+00,3.823186641738152503e+01
3.107500301536497034e+00,3.152030080131146406e+01
3.112500302251036466e+00,2.575542343027410652e+01
3.117500302965576342e+00,2.180211276955105859e+01
3.122500303680116218e+00,1.958387150577436842e+01
3.127500304394655650e+00,1.799765198674924704e+01
3.132500305109195970e+00,1.638858766713224213e+01
3.137500305823735403e+00,1.506284100918475133e+01
3.142500306538275279e+00,1.412677584641306794e+01
3.147500307252815155e+00,1.353606016712700466e+01
3.152500307967354587e+00,1.330999106596442516e+01
3.157500308681894463e+00,1.301907408994281923e+01
3.162500309396434339e+00,1.240279057278928576e+01
3.167500310110974215e+00,1.149960251809557121e+01
3.172500310825513647e+00,1.092893502153197005e+01
3.177500311540053524e+00,1.088607983563611015e+01
3.182500312254593400e+00,1.112180962795872574e+01
3.187500312969132832e+00,1.142821782514255347e+01
3.192500313683672708e+00,1.147667027340520463e+01
3.197500314398212584e+00,1.122820562948811585e+01
3.202500315112752460e+00,1.083145406214794093e+01
3.207500315827291892e+00,1.056675956692760110e+01
3.212500316541832213e+00,1.053450394108000410e+01
3.217500317256371645e+00,1.089265561200431875e+01
3.222500317970911521e+00,1.125920494028929397e+01
3.227500318685451397e+00,1.109973746220578050e+01
3.232500319399990829e+00,1.084755107751061587e+01
3.237500320114530705e+00,1.089990238763601837e+01
3.242500320829070581e+00,1.108867930341034480e+01
3.247500321543610458e+00,1.144437809613231138e+01
3.252500322258149890e+00,1.173934680606697611e+01
3.257500322972690210e+00,1.171193685406251461e+01
3.262500323687229642e+00,1.165475987777449518e+01
3.267500324401769074e+00,1.182325706788697062e+01
3.272500325116308950e+00,1.214572114105033052e+01
3.277500325830848826e+00,1.241195600812801558e+01
3.282500326545388702e+00,1.272746988970800430e+01
3.287500327259928135e+00,1.297560300192242266e+01
3.292500327974468455e+00,1.314574410945351701e+01
3.297500328689007887e+00,1.318351973478655736e+01
3.302500329403547319e+00,1.332697579910097829e+01
3.307500330118087639e+00,1.370283006394049607e+01
3.312500330832627071e+00,1.397194942639623605e+01
3.317500331547166947e+00,1.419546930413184782e+01
3.322500332261706824e+00,1.441954095009253933e+01
3.327500332976246700e+00,1.483762393322922435e+01
3.332500333690786132e+00,1.542982940046829299e+01
3.337500334405326008e+00,1.609872329961831383e+01
3.342500335119865884e+00,1.653590352805531438e+01
3.347500335834405316e+00,1.667393474742067383e+01
3.352500336548945636e+00,1.684717602058367447e+01
3.357500337263485068e+00,1.741729961070990385e+01
3.362500337978024945e+00,1.828540646001641790e+01
3.367500338692564377e+00,1.897417951032048222e+01
3.372500339407104697e+00,1.957191446499314225e+01
3.377500340121644129e+00,2.018424098059819016e+01
3.382500340836183561e+00,2.106342564563783526e+01
3.387500341550723881e+00,2.246905923664098736e+01
3.392500342265263313e+00,2.372967170862324338e+01
3.397500342979803190e+00,2.478695216601562379e+01
3.402500343694343066e+00,2.589405208554217097e+01
3.407500344408882942e+00,2.719639586331589953e+01
3.412500345123422374e+00,2.899574941857304111e+01
3.417500345837962250e+00,3.113754929545171990e+01
3.422500346552502126e+00,3.334549738976977551e+01
3.427500347267041558e+00,3.568121671095593683e+01
3.432500347981581879e+00,3.818243497601076797e+01
3.437500348696121311e+00,4.067408080112227253e+01
3.442500349410661187e+00,4.305621705148246292e+01
3.447500350125201063e+00,4.485601227703989480e+01
3.452500350839740495e+00,4.608916039043748469e+01
3.457500351554280371e+00,4.718697417307407704e+01
3.462500352268820247e+00,4.826133888858583987e+01
3.467500352983360123e+00,4.947919348421658015e+01
3.472500353697899556e+00,5.143957526874868336e+01
3.477500354412439432e+00,5.462869803769893906e+01
3.482500355126979308e+00,5.971035734694828534e+01
3.487500355841518740e+00,6.780968295434064430e+01
3.492500356556058616e+00,7.919529824370073356e+01
3.497500357270598492e+00,9.344512222697585457e+01
3.502500357985138368e+00,1.113701671518442140e+02
3.507500358699677800e+00,1.317909667245571654e+02
3.512500359414218121e+00,1.525723661491842904e+02
3.517500360128757553e+00,1.693326896082651842e+02
3.522500360843297429e+00,1.753090967083016949e+02
3.527500361557837305e+00,1.657734149994689119e+02
3.532500362272376737e+00,1.454089099953236541e+02
3.537500362986916613e+00,1.174875007491518772e+02
3.542500363701456489e+00,9.021070223695585355e+01
3.547500364415996366e+00,7.075421153926845363e+01
3.552500365130535798e+00,5.826479504835504031e+01
3.557500365845075674e+00,5.005178627111843070e+01
3.562500366559615550e+00,4.466292201090777780e+01
3.567500367274154982e+00,4.116580599073341773e+01
3.572500367988694858e+00,3.897505729093211357e+01
3.577500368703234734e+00,3.754115312276894656e+01
3.582500369417774611e+00,3.657625890672585456e+01
3.587500370132314043e+00,3.582186743281937424e+01
3.592500370846854363e+00,3.500329715177616663e+01
3.597500371561393795e+00,3.379697733144303129e+01
3.602500372275933227e+00,3.277167120147498736e+01
3.607500372990473547e+00,3.203758484021068398e+01
3.612500373705012979e+00,3.160360594435877601e+01
3.617500374419552855e+00,3.139341711040185601e+01
3.622500375134092732e+00,3.147648338357669218e+01
3.627500375848632608e+00,3.215310474826054588e+01
3.632500376563172040e+00,3.310761437030777188e+01
3.637500377277712360e+00,3.449837493509005526e+01
3.642500377992251792e+00,3.643165560076874954e+01
3.647500378706791224e+00,3.917745231094079372e+01
3.652500379421331100e+00,4.304998095884678833e+01
3.657500380135870977e+00,4.811934730938980920e+01
3.662500380850410853e+00,5.445065222388763004e+01
3.667500381564950285e+00,6.111741939458920569e+01
3.672500382279490605e+00,6.648336414364337088e+01
3.677500382994030037e+00,6.837954796425344739e+01
3.682500383708569469e+00,6.577188950714423754e+01
3.687500384423109789e+00,5.932631960999481180e+01
3.692500385137649221e+00,5.079882646359135379e+01
3.697500385852189098e+00,4.251922026039835600e+01
3.702500386566728974e+00,3.613777626109941821e+01
3.707500387281268850e+00,3.159557170879202204e+01
3.712500387995808282e+00,2.847656712794696432e+01
3.717500388710348158e+00,2.631357556282108590e+01
3.722500389424888034e+00,2.497580530219477168e+01
3.727500390139427910e+00,2.389896241856399683e+01
3.732500390853967343e+00,2.294151297529856492e+01
3.737500391568507219e+00,2.212619914004926613e+01
3.742500392283047095e+00,2.148394177276475148e+01
3.747500392997586527e+00,2.101602914651812171e+01
3.752500393712126403e+00,2.068981396911567572e+01
3.757500394426666279e+00,2.057695801212423703e+01
3.762500395141205711e+00,2.039347117349376504e+01
3.767500395855746476e+00,2.032487627259888541e+01
3.772500396570285464e+00,2.016210382574934101e+01
3.777500397284825340e+00,1.975718052287078308e+01
3.782500397999365660e+00,1.926093064363840313e+01
3.787500398713904648e+00,1.855110716110846170e+01
3.792500399428444524e+00,1.758407631214754474e+01
3.797500400142984844e+00,1.659577584949937545e+01
3.802500400857523832e+00,1.566375727822770614e+01
3.807500401572063708e+00,1.498446857067278870e+01
3.812500402286604029e+00,1.463674293609460619e+01
3.817500403001143017e+00,1.439179637937792222e+01
3.822500403715683781e+00,1.414318985934608008e+01
3.827500404430223213e+00,1.398553412285440345e+01
3.832500405144762201e+00,1.359916377716501756e+01
3.837500405859302965e+00,1.301734920411632856e+01
3.842500406573842398e+00,1.242616228288733282e+01
3.847500407288382274e+00,1.201228522799311804e+01
3.852500408002922150e+00,1.155673007181314915e+01
3.857500408717461138e+00,1.123906840102330307e+01
3.862500409432001458e+00,1.109638521412125556e+01
3.867500410146541334e+00,1.075316783754556127e+01
3.872500410861080322e+00,1.045951393358967607e+01
3.877500411575620642e+00,1.003168325831563834e+01
3.882500412290160519e+00,9.911729009311670779e+00
3.887500413004699507e+00,1.009431667344705374e+01
3.892500413719240715e+00,1.041480996447194229e+01
3.897500414433779703e+00,1.062251301061473896e+01
3.902500415148318691e+00,1.065218524725872840e+01
3.907500415862859899e+00,1.055635342875609695e+01
3.912500416577398887e+00,1.044842686290047595e+01
3.917500417291938763e+00,1.038566249891124471e+01
3.922500418006479084e+00,1.075408314041976610e+01
3.927500418721018072e+00,1.113151455493755293e+01
3.932500419435557948e+00,1.131828615754329803e+01
3.937500420150097824e+00,1.144736895042808555e+01
3.942500420864637256e+00,1.172445731009668179e+01
3.947500421579177132e+00,1.224126244448973466e+01
3.952500422293717008e+00,1.281764496143307497e+01
3.957500423008256440e+00,1.317822009333679034e+01
3.962500423722797205e+00,1.325146048048731018e+01
3.967500424437336193e+00,1.306300671801068347e+01
3.972500425151876513e+00,1.258372033447562899e+01
3.977500425866416389e+00,1.174164668260522149e+01
3.982500426580955377e+00,1.101494096475437345e+01
3.987500427295495697e+00,1.047135797908799759e+01
3.992500428010035574e+00,1.015078996146445434e+01
3.997500428724574562e+00,9.721669173408884035e+00
4.002500429439114882e+00,9.296977423682449171e+00
4.007500430153654314e+00,9.298290257817484417e+00
4.012500430868193746e+00,9.311611919138272242e+00
4.017500431582734066e+00,9.172763532436306377e+00
4.022500432297273498e+00,8.959295945847998155e+00
4.027500433011812930e+00,8.701457748513917068e+00
4.032500433726354139e+00,8.690789020658712616e+00
4.037500434440892683e+00,8.843921382498024286e+00
4.042500435155433003e+00,8.979189322443232868e+00
4.047500435869973323e+00,9.192515206944335660e+00
4.052500436584511867e+00,9.424029153615435916e+00
4.057500437299052187e+00,9.806793396545458563e+00
4.062500438013592508e+00,1.008736503051545697e+01
4.067500438728131051e+00,1.051358287630921495e+01
4.072500439442671372e+00,1.102154868195992776e+01
4.077500440157211692e+00,1.143545622438801956e+01
4.082500440871750236e+00,1.185046484463180150e+01
4.087500441586291444e+00,1.201831956510790178e+01
4.092500442300830876e+00,1.246026612874783268e+01
4.097500443015369420e+00,1.336039206352313613e+01
4.102500443729910629e+00,1.434355026650234777e+01
4.107500444444450061e+00,1.549968151368784675e+01
4.112500445158989493e+00,1.691808570032145553e+01
4.117500445873529813e+00,1.857859615736117576e+01
4.122500446588069245e+00,2.069130133123906035e+01
4.127500447302608677e+00,2.298460020385209646e+01
4.132500448017148997e+00,2.552514858169394074e+01
4.137500448731688429e+00,2.834554464279869990e+01
4.142500449446227861e+00,3.097802034305868801e+01
4.147500450160768182e+00,3.331955372097928603e+01
4.152500450875307614e+00,3.541379028446522170e+01
4.157500451589847934e+00,3.718138969057429222e+01
4.162500452304387366e+00,3.822242442722409805e+01
4.167500453018926798e+00,3.929059245974224268e+01
4.172500453733467118e+00,4.031479315866556590e+01
4.177500454448006550e+00,4.127641611816443401e+01
4.182500455162545983e+00,4.213591586313782500e+01
4.187500455877086303e+00,4.277192928091841395e+01
4.192500456591625735e+00,4.339832884399112345e+01
4.197500457306165167e+00,4.456092671161923136e+01
4.202500458020705487e+00,4.658074255217223936e+01
4.207500458735244919e+00,4.985716516428129808e+01
4.212500459449784351e+00,5.476004232065099586e+01
4.217500460164324672e+00,6.134675230132347679e+01
4.222500460878864104e+00,6.979567557342619466e+01
4.227500461593404424e+00,7.939191256467040603e+01
4.232500462307943856e+00,9.044204806770699179e+01
4.237500463022484176e+00,1.025585750683112565e+02
4.242500463737023608e+00,1.143308237005203409e+02
4.247500464451563040e+00,1.238230386392685887e+02
4.252500465166103361e+00,1.266724320789630838e+02
4.257500465880642793e+00,1.207435416436956643e+02
4.262500466595182225e+00,1.074060013833954486e+02
4.267500467309722545e+00,8.790960280904170077e+01
4.272500468024261977e+00,6.573240890639107192e+01
4.277500468738801409e+00,4.706479344267603437e+01
4.282500469453341729e+00,3.388140141587797416e+01
4.287500470167881161e+00,2.498222571493948863e+01
4.292500470882420593e+00,1.918962860419372873e+01
4.297500471596961802e+00,1.515946843240396902e+01
4.302500472311500346e+00,1.205050270898925646e+01
4.307500473026040666e+00,9.956730633374775152e+00
4.312500473740580986e+00,8.721083280592779374e+00
4.317500474455119530e+00,7.839049089616537458e+00
4.322500475169659850e+00,6.926233677866093785e+00
4.327500475884200171e+00,5.983923806104371579e+00
4.332500476598738715e+00,5.114571997629582256e+00
4.337500477313279035e+00,4.563880278561669002e+00
4.342500478027819355e+00,4.293462531408465566e+00
4.347500478742357899e+00,4.179788586913900872e+00
4.352500479456899107e+00,4.162163960436771504e+00
4.357500480171438539e+00,3.828484246531502322e+00
4.362500480885977083e+00,3.146466808451918951e+00
4.367500481600518292e+00,2.586606100465587588e+00
4.372500482315056836e+00,2.129558921809746153e+00
4.377500483029597156e+00,1.631989143302632783e+00
4.382500483744137476e+00,1.360777912469586681e+00
4.387500484458676020e+00,1.172344942654149236e+00
4.392500485173216340e+00,8.041524193155851208e-01
4.397500485887756660e+00,5.962320996861762978e-01
4.402500486602295204e+00,3.776294046146517758e-01
4.407500487316835525e+00,1.257662115821176485e-01
4.412500488031375845e+00,1.520182473270210721e-01
4.417500488745914389e+00,0.000000000000000000e+00
4.422500489460455597e+00,1.978535375696992560e-01
4.427500490174995029e+00,1.544887422430747392e-01
4.432500490889533573e+00,2.694160741829705330e-01
4.437500491604074782e+00,4.524304094431954582e-01
4.442500492318614214e+00,4.503932665758156872e-01
4.447500493033153646e+00,4.763831973008336718e-01
4.452500493747693966e+00,4.236545267841620444e-01
4.457500494462233398e+00,4.982057130567909553e-01
4.462500495176772830e+00,6.762683607300346011e-01
4.467500495891313150e+00,8.242718206477093190e-01
4.472500496605852582e+00,1.095937916492403019e+00
4.477500497320392014e+00,1.437133239748561664e+00
4.482500498034932335e+00,2.046989755215349760e+00
4.487500498749471767e+00,2.685125260031327343e+00
4.492500499464012087e+00,3.086133129811230447e+00
4.497500500178551519e+00,3.308459271811727831e+00
4.502500500893091839e+00,3.575710718722689307e+00
4.507500501607631271e+00,4.067549183396238277e+00
4.512500502322170703e+00,4.638746234667792123e+00
4.517500503036711024e+00,4.844055123568750787e+00
4.522500503751250456e+00,4.884469328288901124e+00
4.527500504465789888e+00,5.145277974136888588e+00
4.532500505180330208e+00,5.466054847253246862e+00
4.537500505894869640e+00,5.545077339961267171e+00
4.542500506609409072e+00,5.464289829712129176e+00
4.547500507323949392e+00,5.265872282640202684e+00
4.552500508038488825e+00,5.087280536803802988e+00
4.557500508753028257e+00,5.089407923318276517e+00
4.562500509467568577e+00,5.330578186314710365e+00
4.567500510182108009e+00,5.956242748603699511e+00
4.572500510896648329e+00,6.977667235150079250e+00
4.577500511611187761e+00,8.454365555141066579e+00
4.582500512325727193e+00,1.051704912077411791e+01
4.587500513040267514e+00,1.324180287268359280e+01
4.592500513754806946e+00,1.685931379560287269e+01
4.597500514469346378e+00,2.110921051801005888e+01
4.602500515183886698e+00,2.579569685708526094e+01
4.607500515898426130e+00,3.145503228749754498e+01
4.612500516612965562e+00,3.791769624808017625e+01
4.617500517327505882e+00,4.414182320046040786e+01
4.622500518042045314e+00,4.970984569550080323e+01
4.627500518756584746e+00,5.354376536942748999e+01
4.632500519471125955e+00,5.485077061964705081e+01
4.637500520185664499e+00,5.363211722001392445e+01
4.642500520900204819e+00,4.993267055719451264e+01
4.647500521614745139e+00,4.366912218343446739e+01
4.652500522329283683e+00,3.622685260956143338e+01
4.657500523043824003e+00,2.917385952767540402e+01
4.662500523758364324e+00,2.355189550649367902e+01
4.667500524472902868e+00,1.959591989568218651e+01
4.672500525187443188e+00,1.681948700948095166e+01
4.677500525901983508e+00,1.492505496462831616e+01
4.682500526616522052e+00,1.396447762375277080e+01
4.687500527331063260e+00,1.367482002509194672e+01
4.692500528045602692e+00,1.415584861690115304e+01
4.697500528760141236e+00,1.534378614029651544e+01
4.702500529474682445e+00,1.713579283045936563e+01
4.707500530189221877e+00,1.920753233463631204e+01
4.712500530903761309e+00,2.230400423170146951e+01
4.717500531618301629e+00,2.627100765523488235e+01
4.722500532332841061e+00,3.067437347128782221e+01
4.727500533047380493e+00,3.562897428817859691e+01
4.732500533761920813e+00,4.039479379246154167e+01
4.737500534476460246e+00,4.508823045989367984e+01
4.742500535190999678e+00,4.960821449882530487e+01
4.747500535905539998e+00,5.302231624866664106e+01
4.752500536620079430e+00,5.508679622874632287e+01
4.757500537334618862e+00,5.550786612466885117e+01
4.762500538049159182e+00,5.409766413014068576e+01
4.767500538763698614e+00,5.017467608957770153e+01
4.772500539478238046e+00,4.446986342782201973e+01
4.777500540192778367e+00,3.785203546462361146e+01
4.782500540907317799e+00,3.186331084045013995e+01
4.787500541621858119e+00,2.754611336612526884e+01
4.792500542336397551e+00,2.431179384902839047e+01
4.797500543050936983e+00,2.252595724156026336e+01
4.802500543765477303e+00,2.156199047320262707e+01
4.807500544480016735e+00,2.132965742124889630e+01
4.812500545194556167e+00,2.173438846161258198e+01
4.817500545909096488e+00,2.207797626963667881e+01
4.822500546623636808e+00,2.284351844707362034e+01
4.827500547338175352e+00,2.368925297133114327e+01
4.832500548052715672e+00,2.436152206268690179e+01
4.837500548767255992e+00,2.531607955736194526e+01
4.842500549481794536e+00,2.626807870051595728e+01
4.847500550196334856e+00,2.753335022244590391e+01
4.852500550910875177e+00,2.879500390111184061e+01
4.857500551625414609e+00,3.004614706802271940e+01
4.862500552339954041e+00,3.118372616099685501e+01
4.867500553054494361e+00,3.215446178278097022e+01
4.872500553769033793e+00,3.317961066396628667e+01
4.877500554483574113e+00,3.487355697160910495e+01
4.882500555198113545e+00,3.618585942839479230e+01
4.887500555912652977e+00,3.703870248453927161e+01
4.892500556627193298e+00,3.798107112250147566e+01
4.897500557341732730e+00,3.872180139411653954e+01
4.902500558056272162e+00,3.962863437569995995e+01
4.907500558770812482e+00,4.078384971299283279e+01
4.912500559485352802e+00,4.196888476181209171e+01
4.917500560199891346e+00,4.332415514471512097e+01
4.922500560914431667e+00,4.455584186039851602e+01
4.927500561628971987e+00,4.574305070755036695e+01
4.932500562343510531e+00,4.745042214815561010e+01
4.937500563058050851e+00,4.928977681533189070e+01
4.942500563772590283e+00,5.152646927311872105e+01
4.947500564487130603e+00,5.366605793837572946e+01
4.952500565201670035e+00,5.556850185815005716e+01
4.957500565916209467e+00,5.742710358079256139e+01
4.962500566630749788e+00,5.917182946848146230e+01
4.967500567345289220e+00,6.144086731443235294e+01
4.972500568059828652e+00,6.364855847182650450e+01
4.977500568774368972e+00,6.622343496320962686e+01
4.982500569488909292e+00,6.888525805473210539e+01
4.987500570203447836e+00,7.113744989679668151e+01
4.992500570917988156e+00,7.350555787954908737e+01
4.997500571632528477e+00,7.638628417391544190e+01
5.002500572347067020e+00,7.916171302654691999e+01
5.007500573061607341e+00,8.163092086726248908e+01
5.012500573776147661e+00,8.451681224657068014e+01
5.017500574490687093e+00,8.821380049975363136e+01
5.022500575205226525e+00,9.239748792267016597e+01
5.027500575919766845e+00,9.697348779326063095e+01
5.032500576634306277e+00,1.017425855043805427e+02
5.037500577348845709e+00,1.065066040423380969e+02
5.042500578063386030e+00,1.115660541333982110e+02
5.047500578777925462e+00,1.166269640777883296e+02
5.052500579492465782e+00,1.214567635387813880e+02
5.057500580207005214e+00,1.266178650856847980e+02
5.062500580921544646e+00,1.321826605317519920e+02
5.067500581636084966e+00,1.380621342154518061e+02
5.072500582350624398e+00,1.437568700805674666e+02
5.077500583065163831e+00,1.481910055336383039e+02
5.082500583779704151e+00,1.520917785631198740e+02
5.087500584494244471e+00,1.548805494679198773e+02
5.092500585208783015e+00,1.562495525664013485e+02
5.097500585923323335e+00,1.554815067921065861e+02
5.102500586637863655e+00,1.524953615433848313e+02
5.107500587352402199e+00,1.479764236365369925e+02
5.112500588066942520e+00,1.432306358702879834e+02
5.117500588781482840e+00,1.385142889398679813e+02
5.122500589496022272e+00,1.345675602553913563e+02
5.127500590210561704e+00,1.310222898207813387e+02
5.132500590925102024e+00,1.283155849701169586e+02
5.137500591639641456e+00,1.263891001528077140e+02
5.142500592354181776e+00,1.258777576367374422e+02
5.147500593068720320e+00,1.270726076157047828e+02
5.152500593783260641e+00,1.303397735219407423e+02
5.157500594497800961e+00,1.353385306394088161e+02
5.162500595212339505e+00,1.429648485842918717e+02
5.167500595926879825e+00,1.543176388636028378e+02
5.172500596641420145e+00,1.696701599045011335e+02
5.177500597355959577e+00,1.873171850230587552e+02
5.182500598070499009e+00,2.059183556957639212e+02
5.187500598785039330e+00,2.234825870771155110e+02
5.192500599499578762e+00,2.382721817691722208e+02
5.197500600214118194e+00,2.490208168821172876e+02
5.202500600928658514e+00,2.536966971104466211e+02
5.207500601643197946e+00,2.505496433560338119e+02
5.212500602357738266e+00,2.372744838414283208e+02
5.217500603072277698e+00,2.168057928794028726e+02
5.222500603786817130e+00,1.911247756385963612e+02
5.227500604501357451e+00,1.618274444130612437e+02
5.232500605215896883e+00,1.331375885929837750e+02
5.237500605930436315e+00,1.091520139225128787e+02
5.242500606644976635e+00,9.066558522438543832e+01
5.247500607359516955e+00,7.674547566752249850e+01
5.252500608074055499e+00,6.662524025337148714e+01
5.257500608788595819e+00,5.955549330615900772e+01
5.262500609503136140e+00,5.431608498657658401e+01
5.267500610217674684e+00,5.024622214140822507e+01
5.272500610932215004e+00,4.681749686799810206e+01
5.277500611646755324e+00,4.380859964903226000e+01
5.282500612361294756e+00,4.136116652052390918e+01
5.287500613075834188e+00,3.929227907182769286e+01
5.292500613790374508e+00,3.711256136948475159e+01
5.297500614504913941e+00,3.539065139278409333e+01
5.302500615219453373e+00,3.421014073104441877e+01
5.307500615933993693e+00,3.326433166370713934e+01
5.312500616648533125e+00,3.235907529511700886e+01
5.317500617363073445e+00,3.115743097836588049e+01
5.322500618077612877e+00,2.974375322937009969e+01
5.327500618792152309e+00,2.826706330891641983e+01
5.332500619506692630e+00,2.670786440822462282e+01
5.337500620221232062e+00,2.515838456888280916e+01
5.342500620935771494e+00,2.374701515942587093e+01
5.347500621650311814e+00,2.235605379527186187e+01
5.352500622364851246e+00,2.100274681920416242e+01
5.357500623079390678e+00,1.958931981896603247e+01
5.362500623793930998e+00,1.804082552766334402e+01
5.367500624508470430e+00,1.697253273979652022e+01
5.372500625223009862e+00,1.615834061791451859e+01
5.377500625937550183e+00,1.550520496215995081e+01
5.382500626652089615e+00,1.501438088606488463e+01
5.387500627366629935e+00,1.413036080484619106e+01
5.392500628081169367e+00,1.333792033385657305e+01
5.397500628795708799e+00,1.269550451906729904e+01
5.402500629510249119e+00,1.195177446794127718e+01
5.407500630224788551e+00,1.108540227132232303e+01
5.412500630939327984e+00,1.018147481204135829e+01
5.417500631653868304e+00,9.246770864540849288e+00
5.422500632368408624e+00,8.424971055823903043e+00
5.427500633082947168e+00,7.627975004141603677e+00
5.432500633797487488e+00,7.308789502598415311e+00
5.437500634512027808e+00,6.922252396119347395e+00
5.442500635226567240e+00,6.323256458416153691e+00
5.447500635941106673e+00,5.863551149812678887e+00
5.452500636655646993e+00,5.638324648508103110e+00
5.457500637370186425e+00,5.865079583012004605e+00
5.462500638084725857e+00,6.492367163016069753e+00
5.467500638799266177e+00,7.536884347375917059e+00
5.472500639513805609e+00,8.910622281623886920e+00
5.477500640228345929e+00,1.037106161048205877e+01
5.482500640942885362e+00,1.232787413802998344e+01
5.487500641657424794e+00,1.476568283748423482e+01
5.492500642371965114e+00,1.774223079652233537e+01
5.497500643086504546e+00,2.084754869776452324e+01
