1.502500072169232093e+00,1.165948918812853208e+01
1.507500072883772191e+00,1.350297942309657628e+01
1.512500073598311845e+00,1.522268963315701740e+01
1.517500074312851721e+00,1.622845896012830735e+01
1.522500075027391375e+00,1.706699693069163004e+01
1.527500075741931251e+00,1.727436149933345177e+01
1.532500076456470905e+00,1.726173176871549231e+01
1.537500077171010782e+00,1.787040068045001817e+01
1.542500077885550436e+00,1.908082043995915456e+01
1.547500078600090090e+00,2.094430419104787688e+01
1.552500079314630188e+00,2.261284170387159520e+01
1.557500080029169620e+00,2.358458278723958301e+01
1.562500080743709496e+00,2.434928407955987950e+01
1.567500081458249372e+00,2.463602024381896172e+01
1.572500082172789027e+00,2.433527260371454304e+01
1.577500082887328903e+00,2.383727754516434061e+01
1.582500083601868335e+00,2.341837906796132529e+01
1.587500084316408433e+00,2.360937596609829825e+01
1.592500085030948087e+00,2.383800841215565924e+01
1.597500085745487741e+00,2.346264937544600571e+01
1.602500086460027617e+00,2.281512079579749752e+01
1.607500087174567494e+00,2.207593773563075956e+01
1.612500087889107148e+00,2.105064506112353229e+01
1.617500088603646802e+00,2.035490656457125169e+01
1.622500089318186678e+00,1.960530087365361851e+01
1.627500090032726332e+00,1.889304582729778303e+01
1.632500090747266430e+00,1.845831489236235257e+01
1.637500091461805862e+00,1.837727941020739308e+01
1.642500092176345738e+00,1.850397262042429247e+01
1.647500092890885615e+00,1.848469396758014227e+01
1.652500093605425047e+00,1.830705085896028095e+01
1.657500094319965145e+00,1.778564592994445093e+01
1.662500095034504799e+00,1.665686465100952773e+01
1.667500095749044675e+00,1.549577597167257181e+01
1.672500096463584329e+00,1.463254468302011446e+01
1.677500097178123983e+00,1.439754861406066766e+01
1.682500097892663860e+00,1.438251755643392471e+01
1.687500098607203736e+00,1.409882795068529049e+01
1.692500099321743390e+00,1.327660567785710555e+01
1.697500100036283044e+00,1.281702709311934996e+01
1.702500100750823142e+00,1.251158783269352170e+01
1.707500101465362574e+00,1.252785111281917807e+01
1.712500102179902450e+00,1.251906687819439412e+01
1.717500102894442326e+00,1.289638860652598851e+01
1.722500103608981981e+00,1.346327273013605463e+01
1.727500104323521857e+00,1.337632459063939905e+01
1.732500105038061289e+00,1.295575376849302529e+01
1.737500105752601387e+00,1.290296442218641459e+01
1.742500106467141041e+00,1.384630114488373920e+01
1.747500107181680695e+00,1.561674477212079637e+01
1.752500107896220571e+00,1.821959207610063913e+01
1.757500108610760448e+00,2.240562276455989377e+01
1.762500109325300102e+00,2.858055383303826602e+01
1.767500110039839756e+00,3.862339894633350923e+01
1.772500110754379632e+00,5.471523431398742332e+01
1.777500111468919286e+00,8.121819649925714657e+01
1.782500112183459384e+00,1.257736269565004363e+02
1.787500112897998816e+00,1.899211821446257886e+02
1.792500113612538692e+00,2.358533501345859804e+02
1.797500114327078569e+00,2.281640468066134417e+02
1.802500115041618223e+00,1.723947584340793355e+02
1.807500115756158099e+00,9.893889959928867484e+01
1.812500116470697753e+00,5.886767989824198821e+01
1.817500117185237629e+00,3.862236468827785529e+01
1.822500117899777283e+00,2.753340961492062888e+01
1.827500118614316937e+00,2.107467204293669738e+01
1.832500119328856814e+00,1.710550700878951602e+01
1.837500120043396690e+00,1.460617982340102117e+01
1.842500120757936344e+00,1.302341661428067709e+01
1.847500121472475998e+00,1.186375760195159046e+01
1.852500122187016096e+00,1.133726438019971283e+01
1.857500122901555528e+00,1.127347451069920226e+01
1.862500123616095404e+00,1.114486954529530749e+01
1.867500124330635058e+00,1.164625125133511574e+01
1.872500125045175157e+00,1.228296793458338243e+01
1.877500125759714811e+00,1.285791395542065629e+01
1.882500126474254243e+00,1.333575702817773845e+01
1.887500127188794341e+00,1.398276976844351793e+01
1.892500127903333995e+00,1.474173814460232279e+01
1.897500128617873427e+00,1.526788067149095696e+01
1.902500129332413525e+00,1.586436477195860562e+01
1.907500130046953402e+00,1.682862025750137036e+01
1.912500130761493056e+00,1.773523728148984446e+01
1.917500131476032710e+00,1.911357864780308091e+01
1.922500132190572586e+00,2.052248684596241901e+01
1.927500132905112240e+00,2.170934167214278432e+01
1.932500133619652338e+00,2.282905437356350831e+01
1.937500134334191770e+00,2.396423977133349581e+01
1.942500135048731869e+00,2.478726460394540254e+01
1.947500135763271523e+00,2.566065036289893442e+01
1.952500136477810955e+00,2.621846367709832748e+01
1.957500137192351053e+00,2.667637491008554207e+01
1.962500137906890707e+00,2.715560225526724025e+01
1.967500138621430139e+00,2.816203771585566074e+01
1.972500139335970237e+00,2.905212845585037940e+01
1.977500140050510113e+00,2.965177328769050291e+01
1.982500140765049768e+00,2.994904118133950988e+01
1.987500141479589422e+00,3.010750744910450294e+01
1.992500142194129298e+00,3.023020028196799558e+01
1.997500142908669396e+00,3.043699333079769076e+01
2.002500143623208384e+00,3.056864623672470316e+01
2.007500144337748704e+00,3.094299970249682019e+01
2.012500145052288580e+00,3.151818350323492268e+01
2.017500145766828012e+00,3.219202444832262699e+01
2.022500146481367889e+00,3.247785815184306557e+01
2.027500147195907765e+00,3.239948753149047889e+01
2.032500147910447641e+00,3.251761103400275488e+01
2.037500148624987073e+00,3.281043787227054054e+01
2.042500149339526949e+00,3.325263700264292765e+01
2.047500150054066825e+00,3.413467306508164256e+01
2.052500150768606257e+00,3.587240721585652636e+01
2.057500151483146134e+00,3.835289180785821372e+01
2.062500152197686010e+00,4.145237576423244263e+01
2.067500152912225886e+00,4.563679896565065519e+01
2.072500153626765762e+00,4.924588038754222907e+01
2.077500154341305194e+00,4.997032147166873983e+01
2.082500155055845070e+00,4.761047312070724047e+01
2.087500155770384946e+00,4.273484400139545869e+01
2.092500156484924378e+00,3.781224166014067123e+01
2.097500157199464255e+00,3.439051398039458718e+01
2.102500157914004575e+00,3.242742076694651132e+01
2.107500158628544007e+00,3.180137593565399357e+01
2.112500159343083439e+00,3.185469092384579426e+01
2.117500160057623759e+00,3.286958787608182320e+01
2.122500160772163191e+00,3.504549456816641850e+01
2.127500161486702623e+00,3.826296042488002058e+01
2.132500162201242500e+00,4.249573537947787827e+01
2.137500162915782820e+00,4.715982993433306092e+01
2.142500163630322252e+00,5.110591628600184322e+01
2.147500164344861684e+00,5.348410493854294145e+01
2.152500165059402004e+00,5.335347229337310182e+01
2.157500165773941436e+00,5.062624400081085696e+01
2.162500166488480868e+00,4.598381058698720381e+01
2.167500167203021189e+00,4.025191056119700761e+01
2.172500167917561065e+00,3.458855766384908748e+01
2.177500168632100497e+00,2.971157993079822290e+01
2.182500169346640373e+00,2.550741486116686474e+01
2.187500170061180249e+00,2.235667094256371001e+01
2.192500170775719681e+00,1.977405074854425493e+01
2.197500171490259557e+00,1.773406505167184832e+01
2.202500172204799433e+00,1.617014781546117774e+01
2.207500172919339310e+00,1.493309125465850684e+01
2.212500173633879186e+00,1.451669280956150487e+01
2.217500174348418618e+00,1.423161379023775908e+01
2.222500175062958494e+00,1.373727024728447077e+01
2.227500175777497926e+00,1.296010689920598224e+01
2.232500176492037802e+00,1.248229952656862451e+01
2.237500177206577678e+00,1.245746542277191793e+01
2.242500177921117555e+00,1.257474420613061739e+01
2.247500178635657431e+00,1.234810446201203149e+01
2.252500179350196863e+00,1.153150487714123074e+01
2.257500180064736739e+00,1.057284321568391761e+01
2.262500180779277059e+00,1.017193971913752648e+01
2.267500181493816047e+00,1.024501464682714413e+01
2.272500182208355923e+00,1.037476151950966141e+01
2.277500182922896244e+00,1.051460127116035892e+01
2.282500183637435676e+00,1.026590393003823465e+01
2.287500184351975108e+00,9.793027682547517543e+00
2.292500185066515428e+00,9.558823024970024562e+00
2.297500185781055304e+00,9.742876172993305772e+00
2.302500186495594292e+00,1.009825955129940667e+01
2.307500187210134612e+00,1.030312481243470302e+01
2.312500187924674488e+00,1.021271699823824974e+01
2.317500188639213921e+00,1.004119827156955580e+01
2.322500189353753797e+00,9.939925505440328379e+00
2.327500190068293673e+00,9.887739590878936724e+00
2.332500190782833549e+00,9.681352401032313537e+00
2.337500191497372981e+00,9.390669057983302537e+00
2.342500192211912857e+00,9.325706879243170988e+00
2.347500192926452733e+00,9.347905193367012089e+00
2.352500193640992165e+00,9.672554540321925742e+00
2.357500194355532042e+00,1.009566434840292004e+01
2.362500195070071918e+00,1.030182426347641922e+01
2.367500195784611794e+00,1.033646367157086843e+01
2.372500196499151670e+00,1.025947718824954791e+01
2.377500197213691102e+00,9.982230274922642366e+00
2.382500197928230978e+00,9.816173741864417934e+00
2.387500198642770854e+00,9.621800048092381985e+00
2.392500199357310287e+00,9.653522452795584741e+00
2.397500200071850163e+00,9.995160856202744526e+00
2.402500200786390039e+00,1.077026894903178800e+01
2.407500201500929915e+00,1.169996502403625982e+01
2.412500202215469347e+00,1.247509384222632889e+01
2.417500202930009223e+00,1.303296003228064137e+01
2.422500203644549099e+00,1.311119161689975954e+01
2.427500204359088531e+00,1.299572585360044741e+01
2.432500205073628408e+00,1.278216177471728088e+01
2.437500205788168728e+00,1.241158782504851388e+01
2.442500206502708160e+00,1.211610798581875770e+01
2.447500207217247592e+00,1.179646628730296243e+01
2.452500207931787912e+00,1.182200408511033629e+01
2.457500208646327344e+00,1.237395229739524893e+01
2.462500209360866776e+00,1.323128956002619816e+01
2.467500210075407097e+00,1.406764774502551063e+01
2.472500210789946973e+00,1.463496674657619678e+01
2.477500211504486405e+00,1.468308066350306262e+01
2.482500212219026281e+00,1.449993996807307894e+01
2.487500212933566157e+00,1.415831560837659708e+01
2.492500213648105589e+00,1.355632635288947085e+01
2.497500214362645465e+00,1.287105207252295713e+01
2.502500215077185342e+00,1.204419047969719259e+01
2.507500215791725218e+00,1.119218286154358566e+01
2.512500216506264650e+00,1.046919015489680760e+01
2.517500217220804526e+00,9.776657156042801944e+00
2.522500217935344402e+00,9.215277853502982452e+00
2.527500218649883834e+00,8.890018622140019033e+00
2.532500219364423710e+00,8.707298399675039491e+00
2.537500220078963586e+00,8.752216470618179756e+00
2.542500220793503463e+00,8.844918433784755507e+00
2.547500221508043339e+00,8.825966076053475717e+00
2.552500222222582771e+00,8.736421601582549101e+00
2.557500222937122647e+00,8.713813208677890998e+00
2.562500223651662967e+00,8.855294270164563386e+00
2.567500224366201955e+00,8.952659203206565053e+00
2.572500225080741831e+00,9.466434046148151538e+00
2.577500225795282152e+00,9.644406732613674649e+00
2.582500226509821584e+00,9.739797258177645745e+00
2.587500227224361016e+00,9.910610708355534371e+00
2.592500227938901336e+00,1.023965679049285882e+01
2.597500228653441212e+00,1.056874783244472837e+01
2.602500229367980644e+00,1.089628179101265459e+01
2.607500230082520076e+00,1.127949444982743898e+01
2.612500230797060397e+00,1.177003681253893319e+01
2.617500231511599829e+00,1.237094531826187449e+01
2.622500232226139261e+00,1.285854125623575328e+01
2.627500232940679581e+00,1.280992710430541592e+01
2.632500233655219457e+00,1.225072212520626636e+01
2.637500234369758889e+00,1.147870128315753391e+01
2.642500235084298765e+00,1.046653572294684409e+01
2.647500235798838641e+00,9.528327194322059768e+00
2.652500236513378074e+00,8.882382710751528521e+00
2.657500237227917950e+00,8.472137401537395363e+00
2.662500237942457826e+00,8.261503633453799011e+00
2.667500238656997702e+00,7.910743814019497222e+00
2.672500239371537578e+00,7.545025079530205403e+00
2.677500240086077010e+00,7.393640486991898797e+00
2.682500240800616886e+00,7.602936260734736607e+00
2.687500241515156763e+00,7.824873804645790187e+00
2.692500242229696195e+00,8.067920815960519576e+00
2.697500242944236071e+00,8.362181900999644313e+00
2.702500243658775947e+00,8.464171524886012321e+00
2.707500244373315823e+00,8.438387498364704697e+00
2.712500245087855255e+00,8.566826359149104064e+00
2.717500245802395131e+00,8.822890843105824388e+00
2.722500246516935007e+00,9.076162833949695141e+00
2.727500247231474440e+00,9.293056439885276632e+00
2.732500247946014316e+00,9.383284058527181060e+00
2.737500248660554636e+00,9.827694512125390247e+00
2.742500249375094068e+00,1.030717929802125354e+01
2.747500250089633500e+00,1.075168381956643771e+01
2.752500250804173820e+00,1.123144273813124983e+01
2.757500251518713252e+00,1.175278685831108305e+01
2.762500252233252684e+00,1.225411480805024667e+01
2.767500252947793005e+00,1.263509836133823683e+01
2.772500253662332881e+00,1.276293854215259671e+01
2.777500254376872313e+00,1.256565786120881967e+01
2.782500255091412189e+00,1.219097482809627309e+01
2.787500255805952065e+00,1.189589135403571163e+01
2.792500256520491497e+00,1.215258874838082193e+01
2.797500257235031373e+00,1.260014891042914087e+01
2.802500257949571250e+00,1.298715076536825563e+01
2.807500258664111126e+00,1.357587558693774099e+01
2.812500259378650558e+00,1.447467394117887807e+01
2.817500260093190434e+00,1.557525206377607674e+01
2.822500260807730310e+00,1.674233860848568156e+01
2.827500261522270186e+00,1.794863337798506109e+01
2.832500262236809618e+00,1.918264423830856913e+01
2.837500262951349495e+00,2.061345152351651677e+01
2.842500263665889371e+00,2.264203860246857403e+01
2.847500264380429247e+00,2.529798987723296477e+01
2.852500265094968679e+00,2.861876324438401298e+01
2.857500265809508555e+00,3.265246719496752803e+01
2.862500266524048875e+00,3.768106638125823338e+01
2.867500267238588307e+00,4.411591994718634169e+01
2.872500267953127739e+00,5.233796097204202624e+01
2.877500268667668060e+00,6.311587884386233327e+01
2.882500269382207492e+00,7.790003405469150266e+01
2.887500270096746924e+00,9.888532441185185462e+01
2.892500270811286800e+00,1.298959811808528002e+02
2.897500271525826676e+00,1.773452553650140544e+02
2.902500272240366552e+00,2.520879872858682234e+02
2.907500272954905984e+00,3.663179149330900941e+02
2.912500273669446305e+00,5.302929852441109233e+02
2.917500274383985737e+00,7.429378931669314170e+02
2.922500275098525169e+00,9.818664205276212442e+02
2.927500275813065489e+00,1.176114285151718377e+03
2.932500276527604921e+00,1.226806621333285420e+03
2.937500277242144797e+00,1.116721029151613493e+03
2.942500277956684673e+00,8.938593518152757724e+02
2.947500278671224549e+00,6.197147655061667137e+02
2.952500279385763982e+00,4.034019063329231471e+02
2.957500280100304302e+00,2.717492775577735529e+02
2.962500280814843734e+00,1.968478946163572232e+02
2.967500281529383166e+00,1.548681186140995010e+02
2.972500282243923486e+00,1.308316289827436663e+02
2.977500282958462918e+00,1.177625770450803770e+02
2.982500283673002794e+00,1.107163030562391555e+02
2.987500284387542226e+00,1.069642727273970877e+02
2.992500285102082547e+00,1.045592322553455347e+02
2.997500285816621979e+00,1.025590547583030911e+02
3.002500286531161411e+00,1.001082832449297939e+02
3.007500287245701731e+00,9.664555859310439700e+01
3.012500287960241163e+00,9.219417741151033852e+01
3.017500288674781039e+00,8.652581884653352517e+01
3.022500289389320915e+00,8.053960342040511478e+01
3.027500290103860792e+00,7.525943800215770807e+01
3.032500290818400224e+00,7.116024871802790130e+01
3.037500291532940100e+00,6.876173095170423721e+01
3.042500292247479976e+00,6.864070896371077879e+01
3.047500292962019408e+00,7.076054262992926169e+01
3.052500293676559728e+00,7.466134350629226901e+01
3.057500294391099160e+00,7.954417282706549486e+01
3.062500295105639037e+00,8.391453515742648506e+01
3.067500295820178913e+00,8.623762131361837646e+01
3.072500296534718789e+00,8.604692042372619198e+01
3.077500297249258221e+00,8.345682368767029402e+01
3.082500297963798097e+00,7.829317857665012070e+01
3.087500298678337973e+00,7.172600978063309185e+01
3.092500299392877405e+00,6.552565324177845696e+01
3.097500300107417281e+00,5.901578960192216528e+01
3.102500300821957158e+00,5.231883604849554104e+01
3.107500301536497034e+00,4.614156032841293609e+01
3.112500302251036466e+00,4.058031756468983531e+01
3.117500302965576342e+00,3.593083419220033647e+01
3.122500303680116218e+00,3.216058954968195849e+01
3.127500304394655650e+00,2.906424190533397223e+01
3.132500305109195970e+00,2.667177054686419524e+01
3.137500305823735403e+00,2.511798261762942275e+01
3.142500306538275279e+00,2.432793792152438073e+01
3.147500307252815155e+00,2.401331733138169966e+01
3.152500307967354587e+00,2.377291717393620729e+01
3.157500308681894463e+00,2.361334014798705994e+01
3.162500309396434339e+00,2.341148922107640828e+01
3.167500310110974215e+00,2.314848486600749311e+01
3.172500310825513647e+00,2.280221266845694572e+01
3.177500311540053524e+00,2.246289339552123465e+01
3.182500312254593400e+00,2.196302684355885049e+01
3.187500312969132832e+00,2.138483812743726276e+01
3.192500313683672708e+00,2.094260189946436412e+01
3.197500314398212584e+00,2.061569899019536933e+01
3.202500315112752460e+00,2.030953559806391695e+01
3.207500315827291892e+00,2.015159431495038689e+01
3.212500316541832213e+00,2.011658671424822842e+01
3.217500317256371645e+00,1.998406443502210550e+01
3.222500317970911521e+00,1.978873656499297340e+01
3.227500318685451397e+00,1.960480191609906342e+01
3.232500319399990829e+00,1.932964043091590156e+01
3.237500320114530705e+00,1.890067109297945080e+01
3.242500320829070581e+00,1.861328405585845758e+01
3.247500321543610458e+00,1.868526325074140004e+01
3.252500322258149890e+00,1.901636890613036712e+01
3.257500322972690210e+00,1.957105849526749353e+01
3.262500323687229642e+00,2.012488566207821350e+01
3.267500324401769074e+00,2.033954294593718259e+01
3.272500325116308950e+00,2.045973067831096159e+01
3.277500325830848826e+00,2.073796167041280114e+01
3.282500326545388702e+00,2.099513860593594927e+01
3.287500327259928135e+00,2.117148787909684415e+01
3.292500327974468455e+00,2.124602370611330571e+01
3.297500328689007887e+00,2.130011624059204678e+01
3.302500329403547319e+00,2.175015758929907861e+01
3.307500330118087639e+00,2.254565141191864086e+01
3.312500330832627071e+00,2.320406399541622022e+01
3.317500331547166947e+00,2.378009305301424092e+01
3.322500332261706824e+00,2.400552978487826294e+01
3.327500332976246700e+00,2.388804427865352409e+01
3.332500333690786132e+00,2.395239644710386528e+01
3.337500334405326008e+00,2.397374291301639460e+01
3.342500335119865884e+00,2.422156401129461756e+01
3.347500335834405316e+00,2.495511666995378164e+01
3.352500336548945636e+00,2.587869564072559569e+01
3.357500337263485068e+00,2.651809834294277834e+01
3.362500337978024945e+00,2.702195543007934475e+01
3.367500338692564377e+00,2.774141218636640360e+01
3.372500339407104697e+00,2.900844883942363595e+01
3.377500340121644129e+00,3.062205609749855739e+01
3.382500340836183561e+00,3.236682035467367768e+01
3.387500341550723881e+00,3.425505015583672730e+01
3.392500342265263313e+00,3.647562873587128252e+01
3.397500342979803190e+00,3.966693272095250222e+01
3.402500343694343066e+00,4.424315659156320635e+01
3.407500344408882942e+00,5.034862786816307789e+01
3.412500345123422374e+00,5.792082591013877391e+01
3.417500345837962250e+00,6.626377669131665016e+01
3.422500346552502126e+00,7.466697980203451834e+01
3.427500347267041558e+00,8.272065503129255148e+01
3.432500347981581879e+00,8.971137224968396140e+01
3.437500348696121311e+00,9.512257020833857268e+01
3.442500349410661187e+00,9.741482997653997700e+01
3.447500350125201063e+00,9.499633392621490202e+01
3.452500350839740495e+00,8.801168409142206883e+01
3.457500351554280371e+00,7.864536896533968502e+01
3.462500352268820247e+00,6.783120563904935807e+01
3.467500352983360123e+00,5.811559053406904241e+01
3.472500353697899556e+00,5.094943055480655403e+01
3.477500354412439432e+00,4.633944924101206198e+01
3.482500355126979308e+00,4.335441235382415925e+01
3.487500355841518740e+00,4.147269257314201241e+01
3.492500356556058616e+00,4.012352926335699976e+01
3.497500357270598492e+00,3.914738613947230306e+01
3.502500357985138368e+00,3.852791537853886439e+01
3.507500358699677800e+00,3.820467124280082771e+01
3.512500359414218121e+00,3.796577975753609735e+01
3.517500360128757553e+00,3.754882982443842820e+01
3.522500360843297429e+00,3.705035808499900440e+01
3.527500361557837305e+00,3.655774589326262003e+01
3.532500362272376737e+00,3.611452082959999643e+01
3.537500362986916613e+00,3.561302637853873421e+01
3.542500363701456489e+00,3.522194268081500468e+01
3.547500364415996366e+00,3.528243521511058134e+01
3.552500365130535798e+00,3.578032276689816626e+01
3.557500365845075674e+00,3.655249832697501233e+01
3.562500366559615550e+00,3.712359901343046431e+01
3.567500367274154982e+00,3.753992941158543317e+01
3.572500367988694858e+00,3.808082632017641345e+01
3.577500368703234734e+00,3.889845977683972933e+01
3.582500369417774611e+00,3.977991801913879044e+01
3.587500370132314043e+00,4.067299483817146211e+01
3.592500370846854363e+00,4.111496155131470687e+01
3.597500371561393795e+00,4.066564195348530575e+01
3.602500372275933227e+00,3.949508931918228427e+01
3.607500372990473547e+00,3.795740842405808735e+01
3.612500373705012979e+00,3.654088982234731020e+01
3.617500374419552855e+00,3.533187703445537409e+01
3.622500375134092732e+00,3.435378632243265429e+01
3.627500375848632608e+00,3.332543798888713127e+01
3.632500376563172040e+00,3.243376145519380316e+01
3.637500377277712360e+00,3.180477304478114320e+01
3.642500377992251792e+00,3.133655327813403346e+01
3.647500378706791224e+00,3.109808110139215387e+01
3.652500379421331100e+00,3.103376269502507512e+01
3.657500380135870977e+00,3.098479377860024897e+01
3.662500380850410853e+00,3.089173529445446320e+01
3.667500381564950285e+00,3.065822190386944612e+01
3.672500382279490605e+00,3.008675300277434417e+01
3.677500382994030037e+00,2.928863534877530128e+01
3.682500383708569469e+00,2.883324453584430103e+01
3.687500384423109789e+00,2.865094857837823383e+01
3.692500385137649221e+00,2.842821899526063589e+01
3.697500385852189098e+00,2.839980610290388086e+01
3.702500386566728974e+00,2.828803955243529344e+01
3.707500387281268850e+00,2.823874141570854590e+01
3.712500387995808282e+00,2.845034605842158726e+01
3.717500388710348158e+00,2.869501830425508615e+01
3.722500389424888034e+00,2.888640245838092824e+01
3.727500390139427910e+00,2.876815990518980470e+01
3.732500390853967343e+00,2.838442809273817602e+01
3.737500391568507219e+00,2.799543942930273488e+01
3.742500392283047095e+00,2.743988700610702836e+01
3.747500392997586527e+00,2.696005887473438634e+01
3.752500393712126403e+00,2.680822232454022469e+01
3.757500394426666279e+00,2.660386265225361058e+01
3.762500395141205711e+00,2.630151763469802972e+01
3.767500395855746476e+00,2.572794793901721278e+01
3.772500396570285464e+00,2.489298917352402896e+01
3.777500397284825340e+00,2.383824573541971859e+01
3.782500397999365660e+00,2.295731175812744596e+01
3.787500398713904648e+00,2.236601036917039664e+01
3.792500399428444524e+00,2.186778675664106686e+01
3.797500400142984844e+00,2.129684781770373547e+01
3.802500400857523832e+00,2.064853325240835602e+01
3.807500401572063708e+00,2.013696326883098209e+01
3.812500402286604029e+00,1.974725415930913641e+01
3.817500403001143017e+00,1.935987743136251993e+01
3.822500403715683781e+00,1.889854799134951691e+01
3.827500404430223213e+00,1.852971755273051713e+01
3.832500405144762201e+00,1.811408220448799966e+01
3.837500405859302965e+00,1.759528480376525295e+01
3.842500406573842398e+00,1.719885906772321960e+01
3.847500407288382274e+00,1.678696590172438619e+01
3.852500408002922150e+00,1.642003890720388881e+01
3.857500408717461138e+00,1.628992036805664156e+01
3.862500409432001458e+00,1.643946574288224838e+01
3.867500410146541334e+00,1.658929537402656251e+01
3.872500410861080322e+00,1.664939116732716684e+01
3.877500411575620642e+00,1.677051871131033067e+01
3.882500412290160519e+00,1.713362547060489760e+01
3.887500413004699507e+00,1.735334420396969790e+01
3.892500413719240715e+00,1.748318095262698080e+01
3.897500414433779703e+00,1.755958242313238316e+01
3.902500415148318691e+00,1.761453974719285043e+01
3.907500415862859899e+00,1.744917856961257030e+01
3.912500416577398887e+00,1.741220143115970131e+01
3.917500417291938763e+00,1.747126838385082692e+01
3.922500418006479084e+00,1.760871842655484443e+01
3.927500418721018072e+00,1.754105192691679349e+01
3.932500419435557948e+00,1.710537471320935765e+01
3.937500420150097824e+00,1.651476916813157914e+01
3.942500420864637256e+00,1.582783768589456486e+01
3.947500421579177132e+00,1.500754056289503069e+01
3.952500422293717008e+00,1.437084199385964212e+01
3.957500423008256440e+00,1.380816197619310515e+01
3.962500423722797205e+00,1.301585922018318797e+01
3.967500424437336193e+00,1.228501899084608340e+01
3.972500425151876513e+00,1.196318406500859055e+01
3.977500425866416389e+00,1.161087938955921572e+01
3.982500426580955377e+00,1.124206007954046527e+01
3.987500427295495697e+00,1.087745614476261835e+01
3.992500428010035574e+00,1.086760105430425938e+01
3.997500428724574562e+00,1.106153290843110426e+01
4.002500429439114882e+00,1.139685181169284078e+01
4.007500430153654314e+00,1.191955629874871647e+01
4.012500430868193746e+00,1.243913366644704865e+01
4.017500431582734066e+00,1.285796671214973230e+01
4.022500432297273498e+00,1.329639476893441952e+01
4.027500433011812930e+00,1.355584847126698378e+01
4.032500433726354139e+00,1.382646083902676537e+01
4.037500434440892683e+00,1.405040956270994457e+01
4.042500435155433003e+00,1.432578663237904948e+01
4.047500435869973323e+00,1.472968793731496362e+01
4.052500436584511867e+00,1.537021521918762801e+01
4.057500437299052187e+00,1.614108422639316132e+01
4.062500438013592508e+00,1.648050532933353907e+01
4.067500438728131051e+00,1.673583806147240693e+01
4.072500439442671372e+00,1.725761577758260046e+01
4.077500440157211692e+00,1.838709448191093543e+01
4.082500440871750236e+00,2.022282387314243124e+01
4.087500441586291444e+00,2.254014197334743130e+01
4.092500442300830876e+00,2.542584920028940587e+01
4.097500443015369420e+00,2.919867955886923028e+01
4.102500443729910629e+00,3.435391123687168147e+01
4.107500444444450061e+00,4.105347890968999991e+01
4.112500445158989493e+00,4.906832603528948766e+01
4.117500445873529813e+00,5.772103180737138928e+01
4.122500446588069245e+00,6.649970275697398847e+01
4.127500447302608677e+00,7.487910922712103456e+01
4.132500448017148997e+00,8.260819147637766946e+01
4.137500448731688429e+00,8.995468858513419264e+01
4.142500449446227861e+00,9.716628957869693295e+01
4.147500450160768182e+00,1.049875706831804223e+02
4.152500450875307614e+00,1.131390907845317315e+02
4.157500451589847934e+00,1.203138513895042934e+02
4.162500452304387366e+00,1.232753190866333171e+02
4.167500453018926798e+00,1.197993505950990425e+02
4.172500453733467118e+00,1.105690291905444838e+02
4.177500454448006550e+00,9.650587198050470761e+01
4.182500455162545983e+00,7.848778644740832533e+01
4.187500455877086303e+00,6.065323914978620223e+01
4.192500456591625735e+00,4.625593101527562112e+01
4.197500457306165167e+00,3.581875852229677548e+01
4.202500458020705487e+00,2.823369773328914789e+01
4.207500458735244919e+00,2.327669687287186662e+01
4.212500459449784351e+00,1.965803033178468695e+01
4.217500460164324672e+00,1.681010994621908594e+01
4.222500460878864104e+00,1.486554285917839024e+01
4.227500461593404424e+00,1.349575456738898538e+01
4.232500462307943856e+00,1.248084365766123938e+01
4.237500463022484176e+00,1.187819142606139167e+01
4.242500463737023608e+00,1.161135958302389781e+01
4.247500464451563040e+00,1.139468131783877425e+01
4.252500465166103361e+00,1.134388751938445239e+01
4.257500465880642793e+00,1.152572835819233887e+01
4.262500466595182225e+00,1.141109828648001212e+01
4.267500467309722545e+00,1.127518252255629250e+01
4.272500468024261977e+00,1.150864479499347226e+01
4.277500468738801409e+00,1.199973793836363711e+01
4.282500469453341729e+00,1.246712860029907688e+01
4.287500470167881161e+00,1.284222146027383360e+01
4.292500470882420593e+00,1.284905424916621541e+01
4.297500471596961802e+00,1.289065028835011617e+01
4.302500472311500346e+00,1.303540764988377987e+01
4.307500473026040666e+00,1.335645462528799499e+01
4.312500473740580986e+00,1.353122858299894915e+01
4.317500474455119530e+00,1.329194593910028743e+01
4.322500475169659850e+00,1.274847813391517093e+01
4.327500475884200171e+00,1.179240436641032375e+01
4.332500476598738715e+00,1.051977160399167133e+01
4.337500477313279035e+00,9.225845559094750570e+00
4.342500478027819355e+00,7.798238130618472042e+00
4.347500478742357899e+00,6.425006769191327294e+00
4.352500479456899107e+00,5.196705258446002063e+00
4.357500480171438539e+00,3.992766771689616689e+00
4.362500480885977083e+00,3.007993129744363614e+00
4.367500481600518292e+00,2.049155142771098781e+00
4.372500482315056836e+00,1.644428645454183879e+00
4.377500483029597156e+00,1.427427700152293255e+00
4.382500483744137476e+00,1.238858649661381151e+00
4.387500484458676020e+00,1.117914160209352303e+00
4.392500485173216340e+00,8.073086218735170405e-01
4.397500485887756660e+00,9.404424552481032151e-01
4.402500486602295204e+00,9.562885860792107451e-01
4.407500487316835525e+00,7.339444472462446356e-01
4.412500488031375845e+00,4.524647424559589126e-01
4.417500488745914389e+00,2.328902548658220439e-01
4.422500489460455597e+00,2.338289017953343318e-01
4.427500490174995029e+00,1.004608617040503304e-01
4.432500490889533573e+00,0.000000000000000000e+00
4.437500491604074782e+00,3.477986053911195086e-01
4.442500492318614214e+00,5.635424582705468310e-01
4.447500493033153646e+00,7.134322272262352271e-01
4.452500493747693966e+00,9.868375217981792957e-01
4.457500494462233398e+00,1.022133074144733200e+00
4.462500495176772830e+00,1.246481453911201243e+00
4.467500495891313150e+00,1.836038146377745761e+00
4.472500496605852582e+00,2.863870253656159548e+00
4.477500497320392014e+00,4.327452832602830313e+00
4.482500498034932335e+00,6.243517527656592847e+00
4.487500498749471767e+00,8.449718830628057731e+00
4.492500499464012087e+00,1.108903959829871155e+01
4.497500500178551519e+00,1.390340067158604143e+01
4.502500500893091839e+00,1.684898680330314846e+01
4.507500501607631271e+00,1.973690217575449424e+01
4.512500502322170703e+00,2.238823021521739065e+01
4.517500503036711024e+00,2.443191567203950854e+01
4.522500503751250456e+00,2.522255026519275134e+01
4.527500504465789888e+00,2.489759314128014012e+01
4.532500505180330208e+00,2.322942165580900564e+01
4.537500505894869640e+00,2.017681452750861126e+01
4.542500506609409072e+00,1.664474798093027630e+01
4.547500507323949392e+00,1.286903930115596495e+01
4.552500508038488825e+00,9.421473786947501594e+00
4.557500508753028257e+00,6.696560121857487502e+00
4.562500509467568577e+00,5.040436624254994058e+00
4.567500510182108009e+00,3.953294343046138692e+00
4.572500510896648329e+00,3.430533063556822526e+00
4.577500511611187761e+00,3.047203446223534229e+00
4.582500512325727193e+00,2.807006050053928448e+00
4.587500513040267514e+00,2.787310863895129387e+00
4.592500513754806946e+00,3.098904620908854213e+00
4.597500514469346378e+00,3.506291091559148754e+00
4.602500515183886698e+00,4.089861493790010627e+00
4.607500515898426130e+00,4.992903770388068097e+00
4.612500516612965562e+00,5.892671924941510042e+00
4.617500517327505882e+00,6.969410680060775576e+00
4.622500518042045314e+00,7.993971444197654819e+00
4.627500518756584746e+00,8.865593073381603517e+00
4.632500519471125955e+00,9.378961197410887962e+00
4.637500520185664499e+00,9.776332243311401271e+00
4.642500520900204819e+00,1.034921800566672800e+01
4.647500521614745139e+00,1.084481875210542512e+01
4.652500522329283683e+00,1.101524807683728113e+01
4.657500523043824003e+00,1.091251581082718758e+01
4.662500523758364324e+00,1.051325336360952178e+01
4.667500524472902868e+00,9.756402932294520269e+00
4.672500525187443188e+00,8.791661105099194629e+00
4.677500525901983508e+00,7.802476908241317233e+00
4.682500526616522052e+00,7.205392626270565870e+00
4.687500527331063260e+00,6.966816263024782074e+00
4.692500528045602692e+00,7.065332332660943848e+00
4.697500528760141236e+00,7.159426469051879849e+00
4.702500529474682445e+00,7.191001050800252870e+00
4.707500530189221877e+00,7.350249468836864253e+00
4.712500530903761309e+00,7.739077757295603988e+00
4.717500531618301629e+00,7.844096536892152471e+00
4.722500532332841061e+00,7.753082196580578511e+00
4.727500533047380493e+00,7.912484217789597096e+00
4.732500533761920813e+00,8.338820438110587929e+00
4.737500534476460246e+00,9.110406787644933502e+00
4.742500535190999678e+00,9.984849964800389444e+00
4.747500535905539998e+00,1.050241047341694411e+01
4.752500536620079430e+00,1.103257244700262163e+01
4.757500537334618862e+00,1.161068305304854675e+01
4.762500538049159182e+00,1.250387046179173467e+01
4.767500538763698614e+00,1.311244155131345224e+01
4.772500539478238046e+00,1.362283600911570147e+01
4.777500540192778367e+00,1.406206969151173780e+01
4.782500540907317799e+00,1.476205957481596442e+01
4.787500541621858119e+00,1.540521701707774582e+01
4.792500542336397551e+00,1.600159009208101679e+01
4.797500543050936983e+00,1.700046637256338045e+01
4.802500543765477303e+00,1.805599793023230859e+01
4.807500544480016735e+00,1.952884928499889838e+01
4.812500545194556167e+00,2.126705067647753822e+01
4.817500545909096488e+00,2.271717360111142625e+01
4.822500546623636808e+00,2.405647192546746282e+01
4.827500547338175352e+00,2.520148784328500824e+01
4.832500548052715672e+00,2.659192638720656987e+01
4.837500548767255992e+00,2.833244009676491260e+01
4.842500549481794536e+00,2.996597496566050722e+01
4.847500550196334856e+00,3.170661956287227667e+01
4.852500550910875177e+00,3.323074272798294260e+01
4.857500551625414609e+00,3.459764786807113524e+01
4.862500552339954041e+00,3.586776753780054605e+01
4.867500553054494361e+00,3.698834459178118550e+01
4.872500553769033793e+00,3.818164629590978620e+01
4.877500554483574113e+00,3.945027438597935543e+01
4.882500555198113545e+00,4.053993362237923748e+01
4.887500555912652977e+00,4.157593691706347272e+01
4.892500556627193298e+00,4.264795264801716712e+01
4.897500557341732730e+00,4.378629250106820336e+01
4.902500558056272162e+00,4.477410629411843956e+01
4.907500558770812482e+00,4.564445228965865908e+01
4.912500559485352802e+00,4.660339289790584871e+01
4.917500560199891346e+00,4.817037553619360324e+01
4.922500560914431667e+00,4.991175313679605097e+01
4.927500561628971987e+00,5.114912765280229223e+01
4.932500562343510531e+00,5.241628975539430257e+01
4.937500563058050851e+00,5.382768807214165463e+01
4.942500563772590283e+00,5.572344871826487633e+01
4.947500564487130603e+00,5.811822783571011541e+01
4.952500565201670035e+00,6.038163151503931658e+01
4.957500565916209467e+00,6.274129807083073729e+01
4.962500566630749788e+00,6.497494516083469307e+01
4.967500567345289220e+00,6.752960196371935808e+01
4.972500568059828652e+00,7.036801420838213517e+01
4.977500568774368972e+00,7.332188514075596686e+01
4.982500569488909292e+00,7.660338065077803549e+01
4.987500570203447836e+00,7.971513293451039317e+01
4.992500570917988156e+00,8.323731935157314865e+01
4.997500571632528477e+00,8.705114264976850791e+01
5.002500572347067020e+00,9.100139810376265359e+01
5.007500573061607341e+00,9.543828259713035322e+01
5.012500573776147661e+00,1.007588680110383734e+02
5.017500574490687093e+00,1.075620084508196896e+02
5.022500575205226525e+00,1.159391117303622991e+02
5.027500575919766845e+00,1.267503539717272929e+02
5.032500576634306277e+00,1.410390777985232376e+02
5.037500577348845709e+00,1.580866324238058951e+02
5.042500578063386030e+00,1.780032855153258424e+02
5.047500578777925462e+00,1.996784490256174536e+02
5.052500579492465782e+00,2.219551787037303825e+02
5.057500580207005214e+00,2.443835310288324081e+02
5.062500580921544646e+00,2.656942570578791560e+02
5.067500581636084966e+00,2.852025499842181375e+02
5.072500582350624398e+00,3.019715888387721634e+02
5.077500583065163831e+00,3.152206805798950313e+02
5.082500583779704151e+00,3.254182776715052796e+02
5.087500584494244471e+00,3.303793291573188640e+02
5.092500585208783015e+00,3.249742650358578544e+02
5.097500585923323335e+00,3.067961715534321456e+02
5.102500586637863655e+00,2.808806398369605404e+02
5.107500587352402199e+00,2.482073528080459255e+02
5.112500588066942520e+00,2.110211911400159011e+02
5.117500588781482840e+00,1.781328619200434673e+02
5.122500589496022272e+00,1.529784689616585638e+02
5.127500590210561704e+00,1.340210936153031298e+02
5.132500590925102024e+00,1.209369825124841782e+02
5.137500591639641456e+00,1.108830341380492541e+02
5.142500592354181776e+00,1.037953828145715534e+02
5.147500593068720320e+00,9.787868703243793789e+01
5.152500593783260641e+00,9.322636870767314576e+01
5.157500594497800961e+00,8.941982582843297678e+01
5.162500595212339505e+00,8.573665389056162667e+01
5.167500595926879825e+00,8.217094008705527131e+01
5.172500596641420145e+00,7.894223547603945690e+01
5.177500597355959577e+00,7.607526689484393501e+01
5.182500598070499009e+00,7.364267377641635903e+01
5.187500598785039330e+00,7.124569052238081213e+01
5.192500599499578762e+00,6.904063576085815157e+01
5.197500600214118194e+00,6.698888182889976406e+01
5.202500600928658514e+00,6.524149832718347852e+01
5.207500601643197946e+00,6.372110026455419529e+01
5.212500602357738266e+00,6.211586661272127685e+01
5.217500603072277698e+00,6.030696950548775703e+01
5.222500603786817130e+00,5.847196779344466222e+01
5.227500604501357451e+00,5.688476431937453981e+01
5.232500605215896883e+00,5.541948165067941545e+01
5.237500605930436315e+00,5.421086247001710490e+01
5.242500606644976635e+00,5.321322953624724050e+01
5.247500607359516955e+00,5.235450790123672959e+01
5.252500608074055499e+00,5.182174737080777049e+01
5.257500608788595819e+00,5.126555976060546982e+01
5.262500609503136140e+00,5.042768237266864162e+01
5.267500610217674684e+00,4.988151754622128919e+01
5.272500610932215004e+00,4.931268075338368817e+01
5.277500611646755324e+00,4.856846959332335700e+01
5.282500612361294756e+00,4.783071535476108238e+01
5.287500613075834188e+00,4.733084038902927659e+01
5.292500613790374508e+00,4.673624116672027640e+01
5.297500614504913941e+00,4.601399677378810793e+01
5.302500615219453373e+00,4.529732398968360485e+01
5.307500615933993693e+00,4.418565663306446822e+01
5.312500616648533125e+00,4.268351885281992963e+01
5.317500617363073445e+00,4.103411277456496009e+01
5.322500618077612877e+00,3.950017177213067043e+01
5.327500618792152309e+00,3.797452565312107708e+01
5.332500619506692630e+00,3.680148127415606041e+01
5.337500620221232062e+00,3.582598635923795882e+01
5.342500620935771494e+00,3.501429600366623163e+01
5.347500621650311814e+00,3.441814503732791763e+01
5.352500622364851246e+00,3.383517893290706979e+01
5.357500623079390678e+00,3.348470453831725990e+01
5.362500623793930998e+00,3.329510462748794453e+01
5.367500624508470430e+00,3.312539551756287892e+01
5.372500625223009862e+00,3.253311036968608505e+01
5.377500625937550183e+00,3.177881579057583394e+01
5.382500626652089615e+00,3.133572486963907977e+01
5.387500627366629935e+00,3.111152945437100925e+01
5.392500628081169367e+00,3.108948291403459052e+01
5.397500628795708799e+00,3.043670702443432674e+01
5.402500629510249119e+00,2.913694343276716836e+01
5.407500630224788551e+00,2.745133856973944830e+01
5.412500630939327984e+00,2.543992802457478319e+01
5.417500631653868304e+00,2.334002399619350854e+01
5.422500632368408624e+00,2.121041084986097758e+01
5.427500633082947168e+00,1.921021474610085988e+01
5.432500633797487488e+00,1.743301008601503099e+01
5.437500634512027808e+00,1.587331121051090577e+01
5.442500635226567240e+00,1.482397230265030430e+01
5.447500635941106673e+00,1.380856043453400162e+01
5.452500636655646993e+00,1.295367002043292359e+01
5.457500637370186425e+00,1.237387154726451399e+01
5.462500638084725857e+00,1.175441421131819197e+01
5.467500638799266177e+00,1.141036898466853700e+01
5.472500639513805609e+00,1.097837055854364507e+01
5.477500640228345929e+00,1.055306143512660810e+01
5.482500640942885362e+00,1.022410974982892640e+01
5.487500641657424794e+00,9.625891888487103643e+00
5.492500642371965114e+00,9.307182428772534877e+00
5.497500643086504546e+00,9.278914149966340119e+00
