1.502500072169232093e+00,7.755114267244834991e+00
1.507500072883772191e+00,9.412212994448282188e+00
1.512500073598311845e+00,1.058662334239380698e+01
1.517500074312851721e+00,1.178695095362786560e+01
1.522500075027391375e+00,1.284220524727351176e+01
1.527500075741931251e+00,1.322607920870621001e+01
1.532500076456470905e+00,1.339129997992256449e+01
1.537500077171010782e+00,1.349475703771327062e+01
1.542500077885550436e+00,1.409467627018875646e+01
1.547500078600090090e+00,1.524217271533325402e+01
1.552500079314630188e+00,1.667430476431877651e+01
1.557500080029169620e+00,1.801799262255519807e+01
1.562500080743709496e+00,1.847062134097581065e+01
1.567500081458249372e+00,1.823619804646341436e+01
1.572500082172789027e+00,1.783086342025347903e+01
1.577500082887328903e+00,1.696369004149681814e+01
1.582500083601868335e+00,1.626373317215757197e+01
1.587500084316408433e+00,1.587487939340786625e+01
1.592500085030948087e+00,1.579071599390482561e+01
1.597500085745487741e+00,1.577994601230039962e+01
1.602500086460027617e+00,1.591431182460746641e+01
1.607500087174567494e+00,1.573409197369181811e+01
1.612500087889107148e+00,1.545031064518479980e+01
1.617500088603646802e+00,1.519312023903984255e+01
1.622500089318186678e+00,1.573430503478061837e+01
1.627500090032726332e+00,1.598957001293877056e+01
1.632500090747266430e+00,1.555204915886019990e+01
1.637500091461805862e+00,1.385649003598433637e+01
1.642500092176345738e+00,1.161748621063406972e+01
1.647500092890885615e+00,9.829263631828439429e+00
1.652500093605425047e+00,8.745203339170473100e+00
1.657500094319965145e+00,7.790378086698524385e+00
1.662500095034504799e+00,6.660246193250998203e+00
1.667500095749044675e+00,5.737155451375258508e+00
1.672500096463584329e+00,5.468700063534072342e+00
1.677500097178123983e+00,5.422011416153850405e+00
1.682500097892663860e+00,5.158330836052016366e+00
1.687500098607203736e+00,5.000190989393615837e+00
1.692500099321743390e+00,4.772382680998873639e+00
1.697500100036283044e+00,4.394789329386412646e+00
1.702500100750823142e+00,4.150636480838102216e+00
1.707500101465362574e+00,3.642882192561501142e+00
1.712500102179902450e+00,2.846157952925125301e+00
1.717500102894442326e+00,2.136859015711706888e+00
1.722500103608981981e+00,1.474388298789790497e+00
1.727500104323521857e+00,9.508390034490048492e-01
1.732500105038061289e+00,8.066501340880449789e-01
1.737500105752601387e+00,7.356296936492299210e-01
1.742500106467141041e+00,9.179441876092369057e-01
1.747500107181680695e+00,1.282325657233172933e+00
1.752500107896220571e+00,2.309111232324482899e+00
1.757500108610760448e+00,4.335846160504956970e+00
1.762500109325300102e+00,7.851900508335745599e+00
1.767500110039839756e+00,1.358623771787415535e+01
1.772500110754379632e+00,2.264395025304634146e+01
1.777500111468919286e+00,3.614313093934219978e+01
1.782500112183459384e+00,5.553161490895450925e+01
1.787500112897998816e+00,7.602612755174408221e+01
1.792500113612538692e+00,8.654712948766075442e+01
1.797500114327078569e+00,8.410666446882419223e+01
1.802500115041618223e+00,7.188178467415343675e+01
1.807500115756158099e+00,5.903306267389154982e+01
1.812500116470697753e+00,5.281350866754058870e+01
1.817500117185237629e+00,5.456875359091014843e+01
1.822500117899777283e+00,6.290672685204719983e+01
1.827500118614316937e+00,7.524746102026415429e+01
1.832500119328856814e+00,8.475702127100214511e+01
1.837500120043396690e+00,8.576895314121713909e+01
1.842500120757936344e+00,7.723780425934853611e+01
1.847500121472475998e+00,6.119227986433111255e+01
1.852500122187016096e+00,4.414069934997121436e+01
1.857500122901555528e+00,3.030958269211191691e+01
1.862500123616095404e+00,2.108725396562363130e+01
1.867500124330635058e+00,1.505481668754032398e+01
1.872500125045175157e+00,1.144272730470868282e+01
1.877500125759714811e+00,8.947842314226761573e+00
1.882500126474254243e+00,7.248524465893979141e+00
1.887500127188794341e+00,6.108982363078382605e+00
1.892500127903333995e+00,5.404722124110151071e+00
1.897500128617873427e+00,5.742328877640943574e+00
1.902500129332413525e+00,6.345941373218010995e+00
1.907500130046953402e+00,7.170075468791310414e+00
1.912500130761493056e+00,7.852596543985555400e+00
1.917500131476032710e+00,8.688962665306121380e+00
1.922500132190572586e+00,9.836265114607272153e+00
1.927500132905112240e+00,1.039406945465509580e+01
1.932500133619652338e+00,1.096691553021662457e+01
1.937500134334191770e+00,1.186060653163519873e+01
1.942500135048731869e+00,1.301247632987121960e+01
1.947500135763271523e+00,1.419637604980903234e+01
1.952500136477810955e+00,1.536691235253300647e+01
1.957500137192351053e+00,1.668306804180463132e+01
1.962500137906890707e+00,1.819448136193119581e+01
1.967500138621430139e+00,2.015953071554258713e+01
1.972500139335970237e+00,2.169725116846097990e+01
1.977500140050510113e+00,2.293769455807171198e+01
1.982500140765049768e+00,2.301259111535227930e+01
1.987500141479589422e+00,2.250881015915194894e+01
1.992500142194129298e+00,2.241196361272494642e+01
1.997500142908669396e+00,2.253508642454460187e+01
2.002500143623208384e+00,2.288210092465203616e+01
2.007500144337748704e+00,2.340450017513319381e+01
2.012500145052288580e+00,2.370108551980013090e+01
2.017500145766828012e+00,2.435701687800042237e+01
2.022500146481367889e+00,2.528737963997889437e+01
2.027500147195907765e+00,2.624371542941071311e+01
2.032500147910447641e+00,2.654067615694214055e+01
2.037500148624987073e+00,2.666652817137156717e+01
2.042500149339526949e+00,2.657288614715150743e+01
2.047500150054066825e+00,2.695941157148422462e+01
2.052500150768606257e+00,2.825821826265882919e+01
2.057500151483146134e+00,3.008232818134575837e+01
2.062500152197686010e+00,3.235878910711369372e+01
2.067500152912225886e+00,3.468872102587386053e+01
2.072500153626765762e+00,3.687548385520511829e+01
2.077500154341305194e+00,3.882934053099569383e+01
2.082500155055845070e+00,4.048484592415371708e+01
2.087500155770384946e+00,4.258142545457280903e+01
2.092500156484924378e+00,4.679963607813544968e+01
2.097500157199464255e+00,5.526943655104986419e+01
2.102500157914004575e+00,7.049236760628662068e+01
2.107500158628544007e+00,9.770165937610028095e+01
2.112500159343083439e+00,1.434604064414951381e+02
2.117500160057623759e+00,2.002425920027748703e+02
2.122500160772163191e+00,2.282588019914883830e+02
2.127500161486702623e+00,2.166765619851063320e+02
2.132500162201242500e+00,1.665002810552761616e+02
2.137500162915782820e+00,1.125208977645106643e+02
2.142500163630322252e+00,8.600316654372574021e+01
2.147500164344861684e+00,7.649104709711559735e+01
2.152500165059402004e+00,7.593276543787624178e+01
2.157500165773941436e+00,7.886883268759544308e+01
2.162500166488480868e+00,7.815088662954070742e+01
2.167500167203021189e+00,7.162763531272071305e+01
2.172500167917561065e+00,6.217992174968719610e+01
2.177500168632100497e+00,5.908296756941172134e+01
2.182500169346640373e+00,6.628313693382312977e+01
2.187500170061180249e+00,8.235978956566799525e+01
2.192500170775719681e+00,9.854642943066119187e+01
2.197500171490259557e+00,1.007658609879860592e+02
2.202500172204799433e+00,8.460205198376041835e+01
2.207500172919339310e+00,5.803392861753991383e+01
2.212500173633879186e+00,3.844508013264390911e+01
2.217500174348418618e+00,2.802512600413103883e+01
2.222500175062958494e+00,2.211612096856521248e+01
2.227500175777497926e+00,1.831707772955599012e+01
2.232500176492037802e+00,1.575505460469986474e+01
2.237500177206577678e+00,1.352811817251517823e+01
2.242500177921117555e+00,1.174089625140169346e+01
2.247500178635657431e+00,1.022412135711056180e+01
2.252500179350196863e+00,9.429802822317640221e+00
2.257500180064736739e+00,8.985578603690271393e+00
2.262500180779277059e+00,8.532026073325198468e+00
2.267500181493816047e+00,8.310888337522328584e+00
2.272500182208355923e+00,8.474156268446336071e+00
2.277500182922896244e+00,8.866081443983091503e+00
2.282500183637435676e+00,9.509321167670691466e+00
2.287500184351975108e+00,1.011601634995389531e+01
2.292500185066515428e+00,1.052559668435327467e+01
2.297500185781055304e+00,1.120587928066191807e+01
2.302500186495594292e+00,1.258455059891855399e+01
2.307500187210134612e+00,1.505340839314055756e+01
2.312500187924674488e+00,1.910407338161519419e+01
2.317500188639213921e+00,2.542433324140404238e+01
2.322500189353753797e+00,3.483320120245338103e+01
2.327500190068293673e+00,4.802414114560514236e+01
2.332500190782833549e+00,5.979068405802547659e+01
2.337500191497372981e+00,6.263259868784780338e+01
2.342500192211912857e+00,5.509683392732642915e+01
2.347500192926452733e+00,3.991979176239294702e+01
2.352500193640992165e+00,2.592249939212894105e+01
2.357500194355532042e+00,1.705437143612743967e+01
2.362500195070071918e+00,1.163857126294033151e+01
2.367500195784611794e+00,8.556855961103792652e+00
2.372500196499151670e+00,7.074771651952687535e+00
2.377500197213691102e+00,6.425882005559628851e+00
2.382500197928230978e+00,6.307282157058239136e+00
2.387500198642770854e+00,5.999166578040444620e+00
2.392500199357310287e+00,5.401328100296382217e+00
2.397500200071850163e+00,4.717362017673053742e+00
2.402500200786390039e+00,4.291488596132523980e+00
2.407500201500929915e+00,4.310335300605117936e+00
2.412500202215469347e+00,4.504932644883865578e+00
2.417500202930009223e+00,4.495318684094797845e+00
2.422500203644549099e+00,4.478344190757184151e+00
2.427500204359088531e+00,4.901195604277802431e+00
2.432500205073628408e+00,5.756652599581627783e+00
2.437500205788168728e+00,7.045429395975133957e+00
2.442500206502708160e+00,9.357076857021240812e+00
2.447500207217247592e+00,1.289583087947215745e+01
2.452500207931787912e+00,1.752605306735796376e+01
2.457500208646327344e+00,2.157026540020973471e+01
2.462500209360866776e+00,2.332816268448544861e+01
2.467500210075407097e+00,2.313569458506873389e+01
2.472500210789946973e+00,2.301832490285903532e+01
2.477500211504486405e+00,2.542140877228138152e+01
2.482500212219026281e+00,3.051695535683990101e+01
2.487500212933566157e+00,3.511228873802622275e+01
2.492500213648105589e+00,3.557378448782083069e+01
2.497500214362645465e+00,3.110207718845640557e+01
2.502500215077185342e+00,2.428067493459957404e+01
2.507500215791725218e+00,1.788745225350032797e+01
2.512500216506264650e+00,1.320916426537121424e+01
2.517500217220804526e+00,9.999179837905842305e+00
2.522500217935344402e+00,7.777988178294322097e+00
2.527500218649883834e+00,6.343757915469836917e+00
2.532500219364423710e+00,5.287107608135329428e+00
2.537500220078963586e+00,4.360917756692913372e+00
2.542500220793503463e+00,3.855635979233397848e+00
2.547500221508043339e+00,3.569613925804105747e+00
2.552500222222582771e+00,3.414606546191464531e+00
2.557500222937122647e+00,3.230530390903254556e+00
2.562500223651662967e+00,3.022188464882390235e+00
2.567500224366201955e+00,3.136577356609677736e+00
2.572500225080741831e+00,3.436043976579924220e+00
2.577500225795282152e+00,3.611456944211965947e+00
2.582500226509821584e+00,3.644456343897616080e+00
2.587500227224361016e+00,3.637440297455214022e+00
2.592500227938901336e+00,3.416928001424025751e+00
2.597500228653441212e+00,3.357229160841143312e+00
2.602500229367980644e+00,3.602642475750485573e+00
2.607500230082520076e+00,4.132610670679014220e+00
2.612500230797060397e+00,4.817293004579028093e+00
2.617500231511599829e+00,5.528557702643524863e+00
2.622500232226139261e+00,6.107328147885880298e+00
2.627500232940679581e+00,6.613552363731571404e+00
2.632500233655219457e+00,7.001557018094501927e+00
2.637500234369758889e+00,7.521689269246451204e+00
2.642500235084298765e+00,8.351511834342034035e+00
2.647500235798838641e+00,9.627785411456727616e+00
2.652500236513378074e+00,1.189052995904449972e+01
2.657500237227917950e+00,1.525367899297418717e+01
2.662500237942457826e+00,1.953639672535723548e+01
2.667500238656997702e+00,2.439756903150134804e+01
2.672500239371537578e+00,2.877073997350282752e+01
2.677500240086077010e+00,3.225342454453885921e+01
2.682500240800616886e+00,3.524422414753456678e+01
2.687500241515156763e+00,3.842610296249921475e+01
2.692500242229696195e+00,4.192156983143922844e+01
2.697500242944236071e+00,4.456352176436462287e+01
2.702500243658775947e+00,4.484196024802525926e+01
2.707500244373315823e+00,4.146017410738267017e+01
2.712500245087855255e+00,3.517580395887574696e+01
2.717500245802395131e+00,2.806677238634193827e+01
2.722500246516935007e+00,2.161133154857640193e+01
2.727500247231474440e+00,1.656111005446894069e+01
2.732500247946014316e+00,1.297077604907627801e+01
2.737500248660554636e+00,1.057013804383331035e+01
2.742500249375094068e+00,8.941146869811007036e+00
2.747500250089633500e+00,7.655682543080729374e+00
2.752500250804173820e+00,7.002757633983435426e+00
2.757500251518713252e+00,6.920646173508885113e+00
2.762500252233252684e+00,6.987972520608195737e+00
2.767500252947793005e+00,6.827397885756795404e+00
2.772500253662332881e+00,6.609312958031239305e+00
2.777500254376872313e+00,6.521015151324832004e+00
2.782500255091412189e+00,6.572555772438420263e+00
2.787500255805952065e+00,6.955046905963911286e+00
2.792500256520491497e+00,7.611675818701712615e+00
2.797500257235031373e+00,8.315128055478737679e+00
2.802500257949571250e+00,9.168167273250674043e+00
2.807500258664111126e+00,1.006942503613697681e+01
2.812500259378650558e+00,1.127165887217540785e+01
2.817500260093190434e+00,1.306501033007532442e+01
2.822500260807730310e+00,1.575405576057784174e+01
2.827500261522270186e+00,1.942877189273843896e+01
2.832500262236809618e+00,2.436459076567479087e+01
2.837500262951349495e+00,3.063171369351999829e+01
2.842500263665889371e+00,3.667287005459013471e+01
2.847500264380429247e+00,3.988507388328650904e+01
2.852500265094968679e+00,4.012740585262196191e+01
2.857500265809508555e+00,3.866068002237091150e+01
2.862500266524048875e+00,3.783067137823337589e+01
2.867500267238588307e+00,3.939907896670177934e+01
2.872500267953127739e+00,4.351422902016099670e+01
2.877500268667668060e+00,5.051322949800237438e+01
2.882500269382207492e+00,6.122159166875258052e+01
2.887500270096746924e+00,7.719267102814080772e+01
2.892500270811286800e+00,1.001620130023163711e+02
2.897500271525826676e+00,1.336878863952127858e+02
2.902500272240366552e+00,1.822395707421543989e+02
2.907500272954905984e+00,2.470721121693250666e+02
2.912500273669446305e+00,3.253678028860484233e+02
2.917500274383985737e+00,4.165578669758925230e+02
2.922500275098525169e+00,5.160028498010594831e+02
2.927500275813065489e+00,6.049168123384087039e+02
2.932500276527604921e+00,6.299204928006413411e+02
2.937500277242144797e+00,5.813017436481054574e+02
2.942500277956684673e+00,4.862563152802888453e+02
2.947500278671224549e+00,3.526595235163723601e+02
2.952500279385763982e+00,2.559539449078158668e+02
2.957500280100304302e+00,2.005237453517221411e+02
2.962500280814843734e+00,1.706757286749054288e+02
2.967500281529383166e+00,1.580029840949093227e+02
2.972500282243923486e+00,1.566560043841518564e+02
2.977500282958462918e+00,1.642931558407088346e+02
2.982500283673002794e+00,1.812889607590963124e+02
2.987500284387542226e+00,2.074176911803492089e+02
2.992500285102082547e+00,2.405057736772557746e+02
2.997500285816621979e+00,2.732819175282634205e+02
3.002500286531161411e+00,2.992872709675548890e+02
3.007500287245701731e+00,3.164128357359045367e+02
3.012500287960241163e+00,3.297952800690358117e+02
3.017500288674781039e+00,3.430721266859758884e+02
3.022500289389320915e+00,3.563309105039729161e+02
3.027500290103860792e+00,3.591813221932568467e+02
3.032500290818400224e+00,3.379952594466415121e+02
3.037500291532940100e+00,2.916570100850662470e+02
3.042500292247479976e+00,2.291267286201655224e+02
3.047500292962019408e+00,1.681650151117606811e+02
3.052500293676559728e+00,1.306693714667580934e+02
3.057500294391099160e+00,1.158336557849194719e+02
3.062500295105639037e+00,1.146446643901817879e+02
3.067500295820178913e+00,1.219479887643161646e+02
3.072500296534718789e+00,1.360658133985583049e+02
3.077500297249258221e+00,1.563782146217981222e+02
3.082500297963798097e+00,1.850543922901002247e+02
3.087500298678337973e+00,2.247289393180162733e+02
3.092500299392877405e+00,2.468456832313847258e+02
3.097500300107417281e+00,2.313219622904404673e+02
3.102500300821957158e+00,1.854335437027695548e+02
3.107500301536497034e+00,1.111642635159466295e+02
3.112500302251036466e+00,6.399209839494386642e+01
3.117500302965576342e+00,4.442087338586077294e+01
3.122500303680116218e+00,3.522229682809563656e+01
3.127500304394655650e+00,2.964833218057742670e+01
3.132500305109195970e+00,2.577128591244832023e+01
3.137500305823735403e+00,2.334226697578020548e+01
3.142500306538275279e+00,2.159968900289823068e+01
3.147500307252815155e+00,2.026911771854685185e+01
3.152500307967354587e+00,1.894602240479156308e+01
3.157500308681894463e+00,1.776118117451221678e+01
3.162500309396434339e+00,1.696960919411623081e+01
3.167500310110974215e+00,1.657583334179508938e+01
3.172500310825513647e+00,1.619930968805039129e+01
3.177500311540053524e+00,1.565105313441830504e+01
3.182500312254593400e+00,1.516480806782163882e+01
3.187500312969132832e+00,1.501960695437162485e+01
3.192500313683672708e+00,1.484976789801561381e+01
3.197500314398212584e+00,1.472774986519891627e+01
3.202500315112752460e+00,1.481713730405726892e+01
3.207500315827291892e+00,1.507372046673242494e+01
3.212500316541832213e+00,1.536613139575308651e+01
3.217500317256371645e+00,1.554637004713094939e+01
3.222500317970911521e+00,1.557773397791123671e+01
3.227500318685451397e+00,1.538943260403448221e+01
3.232500319399990829e+00,1.535684232733871113e+01
3.237500320114530705e+00,1.548757220943639368e+01
3.242500320829070581e+00,1.574501133504287509e+01
3.247500321543610458e+00,1.577754634132270439e+01
3.252500322258149890e+00,1.571406312691880203e+01
3.257500322972690210e+00,1.566239045551759546e+01
3.262500323687229642e+00,1.589222231917375439e+01
3.267500324401769074e+00,1.634442579968759901e+01
3.272500325116308950e+00,1.642764141044409598e+01
3.277500325830848826e+00,1.631079408278850451e+01
3.282500326545388702e+00,1.643874868364832764e+01
3.287500327259928135e+00,1.679314375581242302e+01
3.292500327974468455e+00,1.736822159609840810e+01
3.297500328689007887e+00,1.802782288430387325e+01
3.302500329403547319e+00,1.855104098012509439e+01
3.307500330118087639e+00,1.878801415952557363e+01
3.312500330832627071e+00,1.889469734329594530e+01
3.317500331547166947e+00,1.914218826896984638e+01
3.322500332261706824e+00,1.946396870180353744e+01
3.327500332976246700e+00,1.981103749145756865e+01
3.332500333690786132e+00,2.019399431227179775e+01
3.337500334405326008e+00,2.057198619650921501e+01
3.342500335119865884e+00,2.094258180197334696e+01
3.347500335834405316e+00,2.143082170501850214e+01
3.352500336548945636e+00,2.202121302949325354e+01
3.357500337263485068e+00,2.251942988623358133e+01
3.362500337978024945e+00,2.297772841216476536e+01
3.367500338692564377e+00,2.361932421174469710e+01
3.372500339407104697e+00,2.479109011090849890e+01
3.377500340121644129e+00,2.623394189929410913e+01
3.382500340836183561e+00,2.779310444356036669e+01
3.387500341550723881e+00,2.901125133586185711e+01
3.392500342265263313e+00,3.008303370247858766e+01
3.397500342979803190e+00,3.170603235229026495e+01
3.402500343694343066e+00,3.418195406587562957e+01
3.407500344408882942e+00,3.767862500375002810e+01
3.412500345123422374e+00,4.151258347983866770e+01
3.417500345837962250e+00,4.538641516658964292e+01
3.422500346552502126e+00,4.931190983329054234e+01
3.427500347267041558e+00,5.313117951016545248e+01
3.432500347981581879e+00,5.682018632043894968e+01
3.437500348696121311e+00,5.957855571279316109e+01
3.442500349410661187e+00,6.075627323874550711e+01
3.447500350125201063e+00,5.962199509955507892e+01
3.452500350839740495e+00,5.645164067555458587e+01
3.457500351554280371e+00,5.238929340508707355e+01
3.462500352268820247e+00,4.857439805016576884e+01
3.467500352983360123e+00,4.586600386056738898e+01
3.472500353697899556e+00,4.406319304066033737e+01
3.477500354412439432e+00,4.325359149162443373e+01
3.482500355126979308e+00,4.357142545210780327e+01
3.487500355841518740e+00,4.485535841231961740e+01
3.492500356556058616e+00,4.735167714921755078e+01
3.497500357270598492e+00,5.069216648239631695e+01
3.502500357985138368e+00,5.463043739911995544e+01
3.507500358699677800e+00,5.910509844107042454e+01
3.512500359414218121e+00,6.335416610476511323e+01
3.517500360128757553e+00,6.647616103299583301e+01
3.522500360843297429e+00,6.738301939181008038e+01
3.527500361557837305e+00,6.565940683538326539e+01
3.532500362272376737e+00,6.212161743182917917e+01
3.537500362986916613e+00,5.766007244252443797e+01
3.542500363701456489e+00,5.296667627917020127e+01
3.547500364415996366e+00,4.849282431631752388e+01
3.552500365130535798e+00,4.471179302811572143e+01
3.557500365845075674e+00,4.185323705865147303e+01
3.562500366559615550e+00,4.011461500322621987e+01
3.567500367274154982e+00,3.924386152752464341e+01
3.572500367988694858e+00,3.897142472115615419e+01
3.577500368703234734e+00,3.898405149807217640e+01
3.582500369417774611e+00,3.885728271378104637e+01
3.587500370132314043e+00,3.856418119271739897e+01
3.592500370846854363e+00,3.792009491186041714e+01
3.597500371561393795e+00,3.699882521365316279e+01
3.602500372275933227e+00,3.618740585876014393e+01
3.607500372990473547e+00,3.560208813351499657e+01
3.612500373705012979e+00,3.541204080111833719e+01
3.617500374419552855e+00,3.535836255283300034e+01
3.622500375134092732e+00,3.535964231074478903e+01
3.627500375848632608e+00,3.552138915942634867e+01
3.632500376563172040e+00,3.578706384010291686e+01
3.637500377277712360e+00,3.599648939520631075e+01
3.642500377992251792e+00,3.623192050433772238e+01
3.647500378706791224e+00,3.655342556437017265e+01
3.652500379421331100e+00,3.666175900392244102e+01
3.657500380135870977e+00,3.703785713299356530e+01
3.662500380850410853e+00,3.762453980314279534e+01
3.667500381564950285e+00,3.795016763407397775e+01
3.672500382279490605e+00,3.800776188670403144e+01
3.677500382994030037e+00,3.779647785186045894e+01
3.682500383708569469e+00,3.737183678389465058e+01
3.687500384423109789e+00,3.673204792218990633e+01
3.692500385137649221e+00,3.563386542477672947e+01
3.697500385852189098e+00,3.372045702069777917e+01
3.702500386566728974e+00,3.177094624635941500e+01
3.707500387281268850e+00,3.033282821703579657e+01
3.712500387995808282e+00,2.936161806439093880e+01
3.717500388710348158e+00,2.873131846579605053e+01
3.722500389424888034e+00,2.864594918536761270e+01
3.727500390139427910e+00,2.897606440797108007e+01
3.732500390853967343e+00,2.941539946775787939e+01
3.737500391568507219e+00,2.979657519388808851e+01
3.742500392283047095e+00,3.032831104531754818e+01
3.747500392997586527e+00,3.095382354831775729e+01
3.752500393712126403e+00,3.204381946055735852e+01
3.757500394426666279e+00,3.363721842737271572e+01
3.762500395141205711e+00,3.534261172202235457e+01
3.767500395855746476e+00,3.727866141562725488e+01
3.772500396570285464e+00,3.864273441039472345e+01
3.777500397284825340e+00,3.856069492010379918e+01
3.782500397999365660e+00,3.668669695059662672e+01
3.787500398713904648e+00,3.353426950487244085e+01
3.792500399428444524e+00,2.958999456162376873e+01
3.797500400142984844e+00,2.628863524908115323e+01
3.802500400857523832e+00,2.376273911651861681e+01
3.807500401572063708e+00,2.180577289989503242e+01
3.812500402286604029e+00,2.042476534413833633e+01
3.817500403001143017e+00,1.953256794535121799e+01
3.822500403715683781e+00,1.888385958950038912e+01
3.827500404430223213e+00,1.845277106415420576e+01
3.832500405144762201e+00,1.811885917959295966e+01
3.837500405859302965e+00,1.767461409304496556e+01
3.842500406573842398e+00,1.693278963097014866e+01
3.847500407288382274e+00,1.616161447071738166e+01
3.852500408002922150e+00,1.590571499210500406e+01
3.857500408717461138e+00,1.603176957431105620e+01
3.862500409432001458e+00,1.616704619354777606e+01
3.867500410146541334e+00,1.624331721799893558e+01
3.872500410861080322e+00,1.618347439807274668e+01
3.877500411575620642e+00,1.619944146407090102e+01
3.882500412290160519e+00,1.629788091331892019e+01
3.887500413004699507e+00,1.621784659806814943e+01
3.892500413719240715e+00,1.611910770012508465e+01
3.897500414433779703e+00,1.590636748086518537e+01
3.902500415148318691e+00,1.568397519531163198e+01
3.907500415862859899e+00,1.549811359215016182e+01
3.912500416577398887e+00,1.556284261491828147e+01
3.917500417291938763e+00,1.592428397233084070e+01
3.922500418006479084e+00,1.689320780822032475e+01
3.927500418721018072e+00,1.861595555311100725e+01
3.932500419435557948e+00,2.073767844962742402e+01
3.937500420150097824e+00,2.356707143922625391e+01
3.942500420864637256e+00,2.680769640439962131e+01
3.947500421579177132e+00,3.022515746165868222e+01
3.952500422293717008e+00,3.382126477990692592e+01
3.957500423008256440e+00,3.685161270545427215e+01
3.962500423722797205e+00,3.896513664679889644e+01
3.967500424437336193e+00,3.949366385589030415e+01
3.972500425151876513e+00,3.837418515665837049e+01
3.977500425866416389e+00,3.577477047237306351e+01
3.982500426580955377e+00,3.224733982174984703e+01
3.987500427295495697e+00,2.868731908068491521e+01
3.992500428010035574e+00,2.544341171078252728e+01
3.997500428724574562e+00,2.303598254843120685e+01
4.002500429439114882e+00,2.163569550013164644e+01
4.007500430153654314e+00,2.066361119875801933e+01
4.012500430868193746e+00,1.954558153482247462e+01
4.017500431582734066e+00,1.828735341625377941e+01
4.022500432297273498e+00,1.718083707895647194e+01
4.027500433011812930e+00,1.609701380167018669e+01
4.032500433726354139e+00,1.530630944113528358e+01
4.037500434440892683e+00,1.490303290867166197e+01
4.042500435155433003e+00,1.524534809401660596e+01
4.047500435869973323e+00,1.610291790830842729e+01
4.052500436584511867e+00,1.728053099308215224e+01
4.057500437299052187e+00,1.905026114411128901e+01
4.062500438013592508e+00,2.113193606141891223e+01
4.067500438728131051e+00,2.347368544499340715e+01
4.072500439442671372e+00,2.597682502800495286e+01
4.077500440157211692e+00,2.844187098111268597e+01
4.082500440871750236e+00,3.014516955114999064e+01
4.087500441586291444e+00,3.086245663144870832e+01
4.092500442300830876e+00,3.112703647278732433e+01
4.097500443015369420e+00,3.132591205449779181e+01
4.102500443729910629e+00,3.199519524072775312e+01
4.107500444444450061e+00,3.372080258123094154e+01
4.112500445158989493e+00,3.662743846567832406e+01
4.117500445873529813e+00,4.017107559241696890e+01
4.122500446588069245e+00,4.427680286887419925e+01
4.127500447302608677e+00,4.875889987445850693e+01
4.132500448017148997e+00,5.313220771017967081e+01
4.137500448731688429e+00,5.769315316858285314e+01
4.142500449446227861e+00,6.189844136071047842e+01
4.147500450160768182e+00,6.487530962236758114e+01
4.152500450875307614e+00,6.690611613717442197e+01
4.157500451589847934e+00,6.843471811040848252e+01
4.162500452304387366e+00,6.894211263815446955e+01
4.167500453018926798e+00,6.786361200028505891e+01
4.172500453733467118e+00,6.563831265461095654e+01
4.177500454448006550e+00,6.292448830329738030e+01
4.182500455162545983e+00,6.029499394560951941e+01
4.187500455877086303e+00,5.835271387597003923e+01
4.192500456591625735e+00,5.698022599060925586e+01
4.197500457306165167e+00,5.596080398484019724e+01
4.202500458020705487e+00,5.488393493119588129e+01
4.207500458735244919e+00,5.344329291224988765e+01
4.212500459449784351e+00,5.187948804406494219e+01
4.217500460164324672e+00,5.065261286292030718e+01
4.222500460878864104e+00,5.058750599719820684e+01
4.227500461593404424e+00,5.169519381778354727e+01
4.232500462307943856e+00,5.435993267440107957e+01
4.237500463022484176e+00,5.819043570226591555e+01
4.242500463737023608e+00,6.227158180646824803e+01
4.247500464451563040e+00,6.527791053503085550e+01
4.252500465166103361e+00,6.627196192266609387e+01
4.257500465880642793e+00,6.486556189117760596e+01
4.262500466595182225e+00,6.095444139009407536e+01
4.267500467309722545e+00,5.493079132831957168e+01
4.272500468024261977e+00,4.716656945890719044e+01
4.277500468738801409e+00,3.955009095524081886e+01
4.282500469453341729e+00,3.322922299112241262e+01
4.287500470167881161e+00,2.869372116656160188e+01
4.292500470882420593e+00,2.551839357028552513e+01
4.297500471596961802e+00,2.367697407076127547e+01
4.302500472311500346e+00,2.286743969902022400e+01
4.307500473026040666e+00,2.270543105882046575e+01
4.312500473740580986e+00,2.271579895751551703e+01
4.317500474455119530e+00,2.254760074395397851e+01
4.322500475169659850e+00,2.211762447840987988e+01
4.327500475884200171e+00,2.142053907907427401e+01
4.332500476598738715e+00,2.033138455644115083e+01
4.337500477313279035e+00,1.889100292151596250e+01
4.342500478027819355e+00,1.734738950418545755e+01
4.347500478742357899e+00,1.590245808994410481e+01
4.352500479456899107e+00,1.443512441599500562e+01
4.357500480171438539e+00,1.315941774352597804e+01
4.362500480885977083e+00,1.236932338701126355e+01
4.367500481600518292e+00,1.165768530211357756e+01
4.372500482315056836e+00,1.083567019701683876e+01
4.377500483029597156e+00,9.486966751187424052e+00
4.382500483744137476e+00,7.847363252097750319e+00
4.387500484458676020e+00,6.371672644063892221e+00
4.392500485173216340e+00,4.936216659113370042e+00
4.397500485887756660e+00,3.970295543552651907e+00
4.402500486602295204e+00,3.235423897821362971e+00
4.407500487316835525e+00,2.672162951888935822e+00
4.412500488031375845e+00,2.263706991043875405e+00
4.417500488745914389e+00,1.981439996526034975e+00
4.422500489460455597e+00,2.003685645533778370e+00
4.427500490174995029e+00,2.270669469435517840e+00
4.432500490889533573e+00,2.325583306901592096e+00
4.437500491604074782e+00,2.157175635941655401e+00
4.442500492318614214e+00,2.172346788757067770e+00
4.447500493033153646e+00,2.091656764247659339e+00
4.452500493747693966e+00,2.054885530752926570e+00
4.457500494462233398e+00,2.018493963559876647e+00
4.462500495176772830e+00,1.868752507018143660e+00
4.467500495891313150e+00,1.932696985095219588e+00
4.472500496605852582e+00,2.140115906070036544e+00
4.477500497320392014e+00,2.345022630509390638e+00
4.482500498034932335e+00,2.882875830258115002e+00
4.487500498749471767e+00,3.625785787274367067e+00
4.492500499464012087e+00,4.267090809653382166e+00
4.497500500178551519e+00,4.812751274600429952e+00
4.502500500893091839e+00,5.353749530783090904e+00
4.507500501607631271e+00,6.012501031149611208e+00
4.512500502322170703e+00,6.984999108327144768e+00
4.517500503036711024e+00,8.018445589861073586e+00
4.522500503751250456e+00,8.481960026737965563e+00
4.527500504465789888e+00,8.483370464876884398e+00
4.532500505180330208e+00,7.926250798650698925e+00
4.537500505894869640e+00,6.839113886127165642e+00
4.542500506609409072e+00,5.171676197511487771e+00
4.547500507323949392e+00,3.560086086639500991e+00
4.552500508038488825e+00,2.445789757779095908e+00
4.557500508753028257e+00,1.500152847667550304e+00
4.562500509467568577e+00,5.936071540331226970e-01
4.567500510182108009e+00,2.425781333812437879e-02
4.572500510896648329e+00,0.000000000000000000e+00
4.577500511611187761e+00,5.389400689780927678e-01
4.582500512325727193e+00,1.314640917106146389e+00
4.587500513040267514e+00,2.264428867865376560e+00
4.592500513754806946e+00,3.448921259280098184e+00
4.597500514469346378e+00,4.652703934158580523e+00
4.602500515183886698e+00,6.073875917831912830e+00
4.607500515898426130e+00,7.627729838083268987e+00
4.612500516612965562e+00,9.263005587263194229e+00
4.617500517327505882e+00,1.100351629885562943e+01
4.622500518042045314e+00,1.261996231232967602e+01
4.627500518756584746e+00,1.399620314580027980e+01
4.632500519471125955e+00,1.476817351165948367e+01
4.637500520185664499e+00,1.509887721306620278e+01
4.642500520900204819e+00,1.517515228066963573e+01
4.647500521614745139e+00,1.469442634371040413e+01
4.652500522329283683e+00,1.371731672768027011e+01
4.657500523043824003e+00,1.244619490745412804e+01
4.662500523758364324e+00,1.082198826510659728e+01
4.667500524472902868e+00,9.209757482497025194e+00
4.672500525187443188e+00,7.876327156507898053e+00
4.677500525901983508e+00,7.147725984597457227e+00
4.682500526616522052e+00,6.874823971836235614e+00
4.687500527331063260e+00,6.764997469975469357e+00
4.692500528045602692e+00,6.783954128621701329e+00
4.697500528760141236e+00,7.101655746809058201e+00
4.702500529474682445e+00,7.724367833545613848e+00
4.707500530189221877e+00,8.444549744541745895e+00
4.712500530903761309e+00,9.513462104088262095e+00
4.717500531618301629e+00,1.063323223474907309e+01
4.722500532332841061e+00,1.187314444056994489e+01
4.727500533047380493e+00,1.312349742895651161e+01
4.732500533761920813e+00,1.433455694740132458e+01
4.737500534476460246e+00,1.564302062723612607e+01
4.742500535190999678e+00,1.703687394066827210e+01
4.747500535905539998e+00,1.844038165586505329e+01
4.752500536620079430e+00,1.969110810062892369e+01
4.757500537334618862e+00,2.047116105888710536e+01
4.762500538049159182e+00,2.083529846015034082e+01
4.767500538763698614e+00,2.058409732482778054e+01
4.772500539478238046e+00,1.995471914509585076e+01
4.777500540192778367e+00,1.911788864466200266e+01
4.782500540907317799e+00,1.847537913033687573e+01
4.787500541621858119e+00,1.803244901547435575e+01
4.792500542336397551e+00,1.757017458364856566e+01
4.797500543050936983e+00,1.755865799647148151e+01
4.802500543765477303e+00,1.768907075062651302e+01
4.807500544480016735e+00,1.878722789662475634e+01
4.812500545194556167e+00,2.068889321459226949e+01
4.817500545909096488e+00,2.295514176309887944e+01
4.822500546623636808e+00,2.586824000611795782e+01
4.827500547338175352e+00,2.894620269779682076e+01
4.832500548052715672e+00,3.172086905433479842e+01
4.837500548767255992e+00,3.461687003914499883e+01
4.842500549481794536e+00,3.709973016949754765e+01
4.847500550196334856e+00,3.964480062199550048e+01
4.852500550910875177e+00,4.194847139077819520e+01
4.857500551625414609e+00,4.385556996917091510e+01
4.862500552339954041e+00,4.509739845905892253e+01
4.867500553054494361e+00,4.539204485019286039e+01
4.872500553769033793e+00,4.510719429948699144e+01
4.877500554483574113e+00,4.469274631852550783e+01
4.882500555198113545e+00,4.414163020325202069e+01
4.887500555912652977e+00,4.348666172342745995e+01
4.892500556627193298e+00,4.338242178474484945e+01
4.897500557341732730e+00,4.401846443664396702e+01
4.902500558056272162e+00,4.514309006567509641e+01
4.907500558770812482e+00,4.634490057128550689e+01
4.912500559485352802e+00,4.721731962949388617e+01
4.917500560199891346e+00,4.767100114016039925e+01
4.922500560914431667e+00,4.790431872894390608e+01
4.927500561628971987e+00,4.833451809105503116e+01
4.932500562343510531e+00,4.909420746977673389e+01
4.937500563058050851e+00,5.036100853537459443e+01
4.942500563772590283e+00,5.207755760580141668e+01
4.947500564487130603e+00,5.433148001193842447e+01
4.952500565201670035e+00,5.707520821283094392e+01
4.957500565916209467e+00,6.006326817264766760e+01
4.962500566630749788e+00,6.254277008333781396e+01
4.967500567345289220e+00,6.492226212440215249e+01
4.972500568059828652e+00,6.697216991602311964e+01
4.977500568774368972e+00,6.876400550343913665e+01
4.982500569488909292e+00,7.046690666359290844e+01
4.987500570203447836e+00,7.201575824302426554e+01
4.992500570917988156e+00,7.421159498990488146e+01
4.997500571632528477e+00,7.655290038216651283e+01
5.002500572347067020e+00,7.935801263336492184e+01
5.007500573061607341e+00,8.277370013213487709e+01
5.012500573776147661e+00,8.707734650078987215e+01
5.017500574490687093e+00,9.195389761680814900e+01
5.022500575205226525e+00,9.754264506010042624e+01
5.027500575919766845e+00,1.046444709860645617e+02
5.032500576634306277e+00,1.128879247857404380e+02
5.037500577348845709e+00,1.221399896873798525e+02
5.042500578063386030e+00,1.321587316822277671e+02
5.047500578777925462e+00,1.428623424932778221e+02
5.052500579492465782e+00,1.533150099366040422e+02
5.057500580207005214e+00,1.635340773451895302e+02
5.062500580921544646e+00,1.741492232564334586e+02
5.067500581636084966e+00,1.843385270859799334e+02
5.072500582350624398e+00,1.934686058464711778e+02
5.077500583065163831e+00,2.011036778682567956e+02
5.082500583779704151e+00,2.058302393130644532e+02
5.087500584494244471e+00,2.060503991349438593e+02
5.092500585208783015e+00,2.004161747345658569e+02
5.097500585923323335e+00,1.900447629553197544e+02
5.102500586637863655e+00,1.760950781692530427e+02
5.107500587352402199e+00,1.607147737614494645e+02
5.112500588066942520e+00,1.460438432042525960e+02
5.117500588781482840e+00,1.338266500865638022e+02
5.122500589496022272e+00,1.245441302622842841e+02
5.127500590210561704e+00,1.175845987350818405e+02
5.132500590925102024e+00,1.125682735841782005e+02
5.137500591639641456e+00,1.089712994018482277e+02
5.142500592354181776e+00,1.062832485141304346e+02
5.147500593068720320e+00,1.044468182464499932e+02
5.152500593783260641e+00,1.030660218415955569e+02
5.157500594497800961e+00,1.018537592604993733e+02
5.162500595212339505e+00,1.008410456978668890e+02
5.167500595926879825e+00,1.001200535743674322e+02
5.172500596641420145e+00,1.001197167846841012e+02
5.177500597355959577e+00,1.010304133147027414e+02
5.182500598070499009e+00,1.025576883860473458e+02
5.187500598785039330e+00,1.037820261845978393e+02
5.192500599499578762e+00,1.040610410226030353e+02
5.197500600214118194e+00,1.036232578562618869e+02
5.202500600928658514e+00,1.026412934380672937e+02
5.207500601643197946e+00,1.007936849300932067e+02
5.212500602357738266e+00,9.857607764813792528e+01
5.217500603072277698e+00,9.538243233711443736e+01
5.222500603786817130e+00,9.075694777847900241e+01
5.227500604501357451e+00,8.511757153241774176e+01
5.232500605215896883e+00,7.889900530894544772e+01
5.237500605930436315e+00,7.288144031947166468e+01
5.242500606644976635e+00,6.734256533343932460e+01
5.247500607359516955e+00,6.259824660997344381e+01
5.252500608074055499e+00,5.906981915764646374e+01
5.257500608788595819e+00,5.616897442979359312e+01
5.262500609503136140e+00,5.406152375225087781e+01
5.267500610217674684e+00,5.284787928038753080e+01
5.272500610932215004e+00,5.234476176278161574e+01
5.277500611646755324e+00,5.248510288497186593e+01
5.282500612361294756e+00,5.297505820891529993e+01
5.287500613075834188e+00,5.388513266126693679e+01
5.292500613790374508e+00,5.515555162713599202e+01
5.297500614504913941e+00,5.699759762000957153e+01
5.302500615219453373e+00,5.935848454933159246e+01
5.307500615933993693e+00,6.194192656816392173e+01
5.312500616648533125e+00,6.518872889349898969e+01
5.317500617363073445e+00,6.890267281602950789e+01
5.322500618077612877e+00,7.222185969429096986e+01
5.327500618792152309e+00,7.450817628669494752e+01
5.332500619506692630e+00,7.481348127497085443e+01
5.337500620221232062e+00,7.217303177783679757e+01
5.342500620935771494e+00,6.694145136858315936e+01
5.347500621650311814e+00,5.985819028015254162e+01
5.352500622364851246e+00,5.191221046373419767e+01
5.357500623079390678e+00,4.540839183876761354e+01
5.362500623793930998e+00,4.028753961716427057e+01
5.367500624508470430e+00,3.612931399080821393e+01
5.372500625223009862e+00,3.268924795382594084e+01
5.377500625937550183e+00,2.985040745883679847e+01
5.382500626652089615e+00,2.795713165133224720e+01
5.387500627366629935e+00,2.609808340678534933e+01
5.392500628081169367e+00,2.457301568807656622e+01
5.397500628795708799e+00,2.338218194588506549e+01
5.402500629510249119e+00,2.213481390189690501e+01
5.407500630224788551e+00,2.096007125583406605e+01
5.412500630939327984e+00,1.944698309171195660e+01
5.417500631653868304e+00,1.765140588564946711e+01
5.422500632368408624e+00,1.575404352540510899e+01
5.427500633082947168e+00,1.397225150959678786e+01
5.432500633797487488e+00,1.226261263129822510e+01
5.437500634512027808e+00,1.074134713429026533e+01
5.442500635226567240e+00,9.444627654470934885e+00
5.447500635941106673e+00,8.496517452277601024e+00
5.452500636655646993e+00,7.978996047456860197e+00
5.457500637370186425e+00,7.478590078437662214e+00
5.462500638084725857e+00,7.083382579682677260e+00
5.467500638799266177e+00,6.999864788326533471e+00
5.472500639513805609e+00,6.698566026992466504e+00
5.477500640228345929e+00,6.423392082699081129e+00
5.482500640942885362e+00,6.462163536942398423e+00
5.487500641657424794e+00,6.758340619212617639e+00
5.492500642371965114e+00,7.296216078090310475e+00
5.497500643086504546e+00,7.931390034762898722e+00
