1.502500072169232093e+00,8.614634895081053401e+00
1.507500072883772191e+00,9.746575646925748515e+00
1.512500073598311845e+00,1.086857449546766929e+01
1.517500074312851721e+00,1.242796012934832106e+01
1.522500075027391375e+00,1.418172280660934348e+01
1.527500075741931251e+00,1.545692085367670643e+01
1.532500076456470905e+00,1.600621045526156649e+01
1.537500077171010782e+00,1.617691304183017564e+01
1.542500077885550436e+00,1.611035611447704241e+01
1.547500078600090090e+00,1.652962349354356775e+01
1.552500079314630188e+00,1.759017177808334509e+01
1.557500080029169620e+00,1.872721194196446959e+01
1.562500080743709496e+00,1.975864512910641224e+01
1.567500081458249372e+00,2.034584756972992636e+01
1.572500082172789027e+00,2.069508660004510148e+01
1.577500082887328903e+00,2.087154654514091590e+01
1.582500083601868335e+00,2.060920421117737078e+01
1.587500084316408433e+00,2.006354495367173740e+01
1.592500085030948087e+00,1.935062518126346731e+01
1.597500085745487741e+00,1.886051840432662630e+01
1.602500086460027617e+00,1.905425127375178818e+01
1.607500087174567494e+00,1.931741076223369191e+01
1.612500087889107148e+00,1.893161023221477990e+01
1.617500088603646802e+00,1.806270965415353658e+01
1.622500089318186678e+00,1.712055682082416297e+01
1.627500090032726332e+00,1.650856010452105238e+01
1.632500090747266430e+00,1.614090037436062630e+01
1.637500091461805862e+00,1.579458178071149632e+01
1.642500092176345738e+00,1.523516418018931518e+01
1.647500092890885615e+00,1.471654951567654734e+01
1.652500093605425047e+00,1.408699988573465589e+01
1.657500094319965145e+00,1.335459775264098425e+01
1.662500095034504799e+00,1.258437118942629240e+01
1.667500095749044675e+00,1.158072796475778432e+01
1.672500096463584329e+00,1.059146555550063340e+01
1.677500097178123983e+00,1.005603164751414624e+01
1.682500097892663860e+00,9.977075652022790564e+00
1.687500098607203736e+00,1.009952585670248482e+01
1.692500099321743390e+00,9.987310619692607361e+00
1.697500100036283044e+00,9.681347874105938445e+00
1.702500100750823142e+00,9.098470911792674087e+00
1.707500101465362574e+00,8.576075602603623338e+00
1.712500102179902450e+00,8.652790562834127286e+00
1.717500102894442326e+00,8.777522567761593564e+00
1.722500103608981981e+00,9.069985118439035432e+00
1.727500104323521857e+00,9.172199908842969762e+00
1.732500105038061289e+00,9.139304933599476044e+00
1.737500105752601387e+00,9.674143113256945981e+00
1.742500106467141041e+00,1.103522128083994858e+01
1.747500107181680695e+00,1.335061399259450354e+01
1.752500107896220571e+00,1.647337124493674310e+01
1.757500108610760448e+00,2.113923332028002733e+01
1.762500109325300102e+00,2.842082390430448413e+01
1.767500110039839756e+00,4.109413568366551317e+01
1.772500110754379632e+00,6.196357307257284219e+01
1.777500111468919286e+00,9.319920197058564781e+01
1.782500112183459384e+00,1.328975712977196508e+02
1.787500112897998816e+00,1.696304800861630042e+02
1.792500113612538692e+00,1.800975348551635307e+02
1.797500114327078569e+00,1.602832541050262307e+02
1.802500115041618223e+00,1.157222050376427660e+02
1.807500115756158099e+00,7.301548305042967968e+01
1.812500116470697753e+00,4.654583014625217174e+01
1.817500117185237629e+00,3.133948185894485050e+01
1.822500117899777283e+00,2.182004298739946080e+01
1.827500118614316937e+00,1.627479619095163343e+01
1.832500119328856814e+00,1.256258773317949817e+01
1.837500120043396690e+00,1.024029232723847826e+01
1.842500120757936344e+00,8.669807766325163811e+00
1.847500121472475998e+00,7.437305413493959350e+00
1.852500122187016096e+00,6.806904519569116019e+00
1.857500122901555528e+00,6.276824568381982772e+00
1.862500123616095404e+00,6.214150903228528477e+00
1.867500124330635058e+00,6.419959240027310443e+00
1.872500125045175157e+00,6.506390864043339661e+00
1.877500125759714811e+00,6.742020062922165380e+00
1.882500126474254243e+00,7.187687868291845916e+00
1.887500127188794341e+00,7.932311383283604300e+00
1.892500127903333995e+00,8.297198969401904378e+00
1.897500128617873427e+00,8.582967972441906568e+00
1.902500129332413525e+00,9.272974899553446448e+00
1.907500130046953402e+00,1.052367186581744818e+01
1.912500130761493056e+00,1.199953701541346618e+01
1.917500131476032710e+00,1.321575640760886472e+01
1.922500132190572586e+00,1.384727553163759239e+01
1.927500132905112240e+00,1.402967211062014030e+01
1.932500133619652338e+00,1.456756064374974358e+01
1.937500134334191770e+00,1.565859143087845951e+01
1.942500135048731869e+00,1.713060267326022768e+01
1.947500135763271523e+00,1.827539122661937654e+01
1.952500136477810955e+00,1.897533003388844008e+01
1.957500137192351053e+00,1.982577413215068418e+01
1.962500137906890707e+00,2.078569541932711218e+01
1.967500138621430139e+00,2.200425125874346577e+01
1.972500139335970237e+00,2.346305742937988725e+01
1.977500140050510113e+00,2.463262123235710988e+01
1.982500140765049768e+00,2.510808367943741359e+01
1.987500141479589422e+00,2.557470411315307501e+01
1.992500142194129298e+00,2.614422495386969558e+01
1.997500142908669396e+00,2.678718371246424113e+01
2.002500143623208384e+00,2.746621377251523199e+01
2.007500144337748704e+00,2.758587349279576983e+01
2.012500145052288580e+00,2.782113741912502292e+01
2.017500145766828012e+00,2.821700566026873958e+01
2.022500146481367889e+00,2.845336594937498376e+01
2.027500147195907765e+00,2.859651952375406836e+01
2.032500147910447641e+00,2.842159933863172228e+01
2.037500148624987073e+00,2.829925830041878498e+01
2.042500149339526949e+00,2.874065217770555591e+01
2.047500150054066825e+00,3.012482607669403478e+01
2.052500150768606257e+00,3.302204818224527116e+01
2.057500151483146134e+00,3.886589838172676536e+01
2.062500152197686010e+00,4.802062056072213636e+01
2.067500152912225886e+00,5.576943437138822901e+01
2.072500153626765762e+00,5.686595735235948723e+01
2.077500154341305194e+00,5.166185995880238124e+01
2.082500155055845070e+00,4.170235506511068024e+01
2.087500155770384946e+00,3.325445724298373307e+01
2.092500156484924378e+00,2.810001254730445908e+01
2.097500157199464255e+00,2.508736477661949493e+01
2.102500157914004575e+00,2.309140796407365315e+01
2.107500158628544007e+00,2.172192988396375313e+01
2.112500159343083439e+00,2.031293090007579849e+01
2.117500160057623759e+00,1.905397162260874211e+01
2.122500160772163191e+00,1.795590166860421277e+01
2.127500161486702623e+00,1.692196561962919077e+01
2.132500162201242500e+00,1.587558012203385260e+01
2.137500162915782820e+00,1.506352602625594272e+01
2.142500163630322252e+00,1.438456166869980279e+01
2.147500164344861684e+00,1.413786647586897516e+01
2.152500165059402004e+00,1.381063862122670116e+01
2.157500165773941436e+00,1.337225396134209632e+01
2.162500166488480868e+00,1.316150358531308484e+01
2.167500167203021189e+00,1.282168292667779497e+01
2.172500167917561065e+00,1.233062106086572385e+01
2.177500168632100497e+00,1.155527665303333151e+01
2.182500169346640373e+00,1.096218717737252746e+01
2.187500170061180249e+00,1.085816105633745110e+01
2.192500170775719681e+00,1.105220393071982699e+01
2.197500171490259557e+00,1.104246934378249989e+01
2.202500172204799433e+00,1.060707905428648701e+01
2.207500172919339310e+00,1.044218456045661014e+01
2.212500173633879186e+00,1.036176568447831414e+01
2.217500174348418618e+00,1.020623042652448476e+01
2.222500175062958494e+00,9.780555834398342085e+00
2.227500175777497926e+00,9.034097574340876236e+00
2.232500176492037802e+00,8.460614345584190232e+00
2.237500177206577678e+00,8.209779111299667420e+00
2.242500177921117555e+00,8.376180563921593603e+00
2.247500178635657431e+00,8.520746465457364138e+00
2.252500179350196863e+00,8.441892329592519673e+00
2.257500180064736739e+00,8.571395445586347250e+00
2.262500180779277059e+00,8.513945659972762314e+00
2.267500181493816047e+00,8.226954947316528433e+00
2.272500182208355923e+00,8.035053260264362507e+00
2.277500182922896244e+00,7.892631254586035539e+00
2.282500183637435676e+00,7.734090533743426477e+00
2.287500184351975108e+00,7.507931784079119097e+00
2.292500185066515428e+00,7.354061904137950023e+00
2.297500185781055304e+00,7.647556212110600882e+00
2.302500186495594292e+00,8.067231444286335318e+00
2.307500187210134612e+00,8.199893802328688253e+00
2.312500187924674488e+00,8.040583094294618149e+00
2.317500188639213921e+00,7.827381084636044761e+00
2.322500189353753797e+00,7.600401973100019859e+00
2.327500190068293673e+00,7.245127356046111800e+00
2.332500190782833549e+00,7.252904273697595272e+00
2.337500191497372981e+00,7.365354390198717738e+00
2.342500192211912857e+00,7.697054658044237385e+00
2.347500192926452733e+00,8.137453822344980381e+00
2.352500193640992165e+00,8.229168319624818650e+00
2.357500194355532042e+00,8.290205178560370314e+00
2.362500195070071918e+00,8.264181746892575120e+00
2.367500195784611794e+00,8.361805183957130794e+00
2.372500196499151670e+00,8.168385888758223246e+00
2.377500197213691102e+00,8.123085547176856380e+00
2.382500197928230978e+00,8.049648333474294759e+00
2.387500198642770854e+00,8.009519807101696642e+00
2.392500199357310287e+00,8.349118641538552765e+00
2.397500200071850163e+00,8.642524612891861580e+00
2.402500200786390039e+00,8.590923180287632022e+00
2.407500201500929915e+00,8.270164079932499135e+00
2.412500202215469347e+00,8.226372897683916108e+00
2.417500202930009223e+00,8.414214008807562095e+00
2.422500203644549099e+00,8.252096877102360395e+00
2.427500204359088531e+00,8.024977568870099276e+00
2.432500205073628408e+00,8.043691028594025738e+00
2.437500205788168728e+00,8.227226469855395408e+00
2.442500206502708160e+00,8.628026447880415617e+00
2.447500207217247592e+00,9.029521039509518232e+00
2.452500207931787912e+00,9.328726720429870056e+00
2.457500208646327344e+00,9.644400662320379070e+00
2.462500209360866776e+00,9.825524619845793950e+00
2.467500210075407097e+00,9.791911620372843572e+00
2.472500210789946973e+00,9.733607819706321607e+00
2.477500211504486405e+00,9.327567307035849353e+00
2.482500212219026281e+00,8.887401861054513574e+00
2.487500212933566157e+00,8.686195891616875997e+00
2.492500213648105589e+00,8.343225189994825541e+00
2.497500214362645465e+00,8.412641011153652926e+00
2.502500215077185342e+00,8.579789654077444538e+00
2.507500215791725218e+00,8.668139952247372548e+00
2.512500216506264650e+00,8.753724191846458780e+00
2.517500217220804526e+00,8.733863697939057147e+00
2.522500217935344402e+00,8.982289684309648692e+00
2.527500218649883834e+00,9.437888370884479627e+00
2.532500219364423710e+00,9.803309382396491856e+00
2.537500220078963586e+00,9.984571461503151113e+00
2.542500220793503463e+00,9.799985808851431557e+00
2.547500221508043339e+00,9.456108231737459846e+00
2.552500222222582771e+00,9.184305306432975158e+00
2.557500222937122647e+00,9.055360091292129709e+00
2.562500223651662967e+00,8.925822224620674206e+00
2.567500224366201955e+00,9.006306264728664246e+00
2.572500225080741831e+00,9.426646719437485444e+00
2.577500225795282152e+00,9.709500341205739460e+00
2.582500226509821584e+00,9.711966000380186870e+00
2.587500227224361016e+00,9.804692351411006257e+00
2.592500227938901336e+00,9.654806299848985418e+00
2.597500228653441212e+00,9.602957680273902952e+00
2.602500229367980644e+00,9.895252850240240150e+00
2.607500230082520076e+00,9.959225149452890946e+00
2.612500230797060397e+00,1.021480902104951838e+01
2.617500231511599829e+00,1.061538615436694499e+01
2.622500232226139261e+00,1.102556258473498474e+01
2.627500232940679581e+00,1.127219408428601355e+01
2.632500233655219457e+00,1.128675066408675320e+01
2.637500234369758889e+00,1.094970744345960156e+01
2.642500235084298765e+00,1.030584616383083585e+01
2.647500235798838641e+00,9.921524476015633809e+00
2.652500236513378074e+00,1.002130313765394476e+01
2.657500237227917950e+00,1.030792282002653337e+01
2.662500237942457826e+00,1.058120059259448453e+01
2.667500238656997702e+00,1.061357923957547200e+01
2.672500239371537578e+00,1.045435699643689986e+01
2.677500240086077010e+00,1.055639653443211046e+01
2.682500240800616886e+00,1.098831368146795739e+01
2.687500241515156763e+00,1.153430042030981895e+01
2.692500242229696195e+00,1.181158704694308881e+01
2.697500242944236071e+00,1.162383572541637022e+01
2.702500243658775947e+00,1.126503453096626117e+01
2.707500244373315823e+00,1.110683875876219417e+01
2.712500245087855255e+00,1.094592199827718559e+01
2.717500245802395131e+00,1.122690704163994724e+01
2.722500246516935007e+00,1.170001969237705453e+01
2.727500247231474440e+00,1.202140004485556801e+01
2.732500247946014316e+00,1.218947333403622224e+01
2.737500248660554636e+00,1.232467405671235383e+01
2.742500249375094068e+00,1.246296403805479258e+01
2.747500250089633500e+00,1.285109000011328817e+01
2.752500250804173820e+00,1.350941925531270726e+01
2.757500251518713252e+00,1.412106934526337909e+01
2.762500252233252684e+00,1.469249153698820010e+01
2.767500252947793005e+00,1.516595861602678497e+01
2.772500253662332881e+00,1.546225897836461627e+01
2.777500254376872313e+00,1.596983237274980638e+01
2.782500255091412189e+00,1.664474548676389531e+01
2.787500255805952065e+00,1.726951152702366699e+01
2.792500256520491497e+00,1.795919373493649118e+01
2.797500257235031373e+00,1.864761144151191274e+01
2.802500257949571250e+00,1.946600217686000178e+01
2.807500258664111126e+00,2.060651654336237470e+01
2.812500259378650558e+00,2.225529316696554361e+01
2.817500260093190434e+00,2.396495625589318479e+01
2.822500260807730310e+00,2.536912365740755604e+01
2.827500261522270186e+00,2.669845910402005984e+01
2.832500262236809618e+00,2.819317831712339739e+01
2.837500262951349495e+00,3.031709930007525600e+01
2.842500263665889371e+00,3.338023144964040512e+01
2.847500264380429247e+00,3.735838615180773559e+01
2.852500265094968679e+00,4.200105642057116029e+01
2.857500265809508555e+00,4.756661587265256230e+01
2.862500266524048875e+00,5.468251770221746710e+01
2.867500267238588307e+00,6.423219653645429617e+01
2.872500267953127739e+00,7.692083381653873175e+01
2.877500268667668060e+00,9.328100354969404862e+01
2.882500269382207492e+00,1.155315895456236035e+02
2.887500270096746924e+00,1.478129233560675289e+02
2.892500270811286800e+00,1.971710982397492558e+02
2.897500271525826676e+00,2.731337137913818651e+02
2.902500272240366552e+00,3.924489201312252931e+02
2.907500272954905984e+00,5.702930595067438162e+02
2.912500273669446305e+00,8.136182920251299038e+02
2.917500274383985737e+00,1.099158943309648748e+03
2.922500275098525169e+00,1.360059251081769162e+03
2.927500275813065489e+00,1.477218274829223901e+03
2.932500276527604921e+00,1.372458413872514484e+03
2.937500277242144797e+00,1.116430070450938274e+03
2.942500277956684673e+00,7.846016399570588646e+02
2.947500278671224549e+00,5.056798600578900960e+02
2.952500279385763982e+00,3.310590294449863791e+02
2.957500280100304302e+00,2.279600459204717708e+02
2.962500280814843734e+00,1.655713060553289893e+02
2.967500281529383166e+00,1.267279349258187722e+02
2.972500282243923486e+00,1.007983827932515055e+02
2.977500282958462918e+00,8.298209356110669432e+01
2.982500283673002794e+00,7.040066078097640911e+01
2.987500284387542226e+00,6.124754689093145998e+01
2.992500285102082547e+00,5.393813814724580880e+01
2.997500285816621979e+00,4.791711767135331002e+01
3.002500286531161411e+00,4.309916979563473660e+01
3.007500287245701731e+00,3.911095394044912155e+01
3.012500287960241163e+00,3.599206286617095429e+01
3.017500288674781039e+00,3.374812325920305511e+01
3.022500289389320915e+00,3.204983137658985015e+01
3.027500290103860792e+00,3.052003190351484818e+01
3.032500290818400224e+00,2.924983123463050561e+01
3.037500291532940100e+00,2.847501959327189525e+01
3.042500292247479976e+00,2.788521409794088868e+01
3.047500292962019408e+00,2.725566418230266663e+01
3.052500293676559728e+00,2.627870301127501307e+01
3.057500294391099160e+00,2.514361198305471135e+01
3.062500295105639037e+00,2.419830285809723591e+01
3.067500295820178913e+00,2.337302381387604555e+01
3.072500296534718789e+00,2.281973322425000106e+01
3.077500297249258221e+00,2.238310796031635164e+01
3.082500297963798097e+00,2.203883684751116334e+01
3.087500298678337973e+00,2.182712286294480464e+01
3.092500299392877405e+00,2.155748660226572611e+01
3.097500300107417281e+00,2.130977335980981024e+01
3.102500300821957158e+00,2.115629057983557004e+01
3.107500301536497034e+00,2.098877318862486163e+01
3.112500302251036466e+00,2.084705791095404948e+01
3.117500302965576342e+00,2.092857423695562602e+01
3.122500303680116218e+00,2.106869110187227534e+01
3.127500304394655650e+00,2.122924227674332087e+01
3.132500305109195970e+00,2.145430639776753878e+01
3.137500305823735403e+00,2.155789007183318517e+01
3.142500306538275279e+00,2.149962978087802412e+01
3.147500307252815155e+00,2.133367493859049091e+01
3.152500307967354587e+00,2.119059096664443587e+01
3.157500308681894463e+00,2.120414762483562754e+01
3.162500309396434339e+00,2.128661808340910966e+01
3.167500310110974215e+00,2.160799645241456801e+01
3.172500310825513647e+00,2.178072068215533363e+01
3.177500311540053524e+00,2.184914399879494340e+01
3.182500312254593400e+00,2.174619994347534657e+01
3.187500312969132832e+00,2.165436428643897671e+01
3.192500313683672708e+00,2.199350903098849130e+01
3.197500314398212584e+00,2.215808503073401425e+01
3.202500315112752460e+00,2.217178507558298861e+01
3.207500315827291892e+00,2.215189936054667896e+01
3.212500316541832213e+00,2.215395049556082085e+01
3.217500317256371645e+00,2.232324379850683727e+01
3.222500317970911521e+00,2.241659581089163567e+01
3.227500318685451397e+00,2.229952668071263133e+01
3.232500319399990829e+00,2.228827066055805517e+01
3.237500320114530705e+00,2.241521800218765748e+01
3.242500320829070581e+00,2.256538956596222079e+01
3.247500321543610458e+00,2.284002324667426365e+01
3.252500322258149890e+00,2.326165209859954075e+01
3.257500322972690210e+00,2.341381380820189406e+01
3.262500323687229642e+00,2.365717618246634402e+01
3.267500324401769074e+00,2.406807474660291746e+01
3.272500325116308950e+00,2.450412553706433982e+01
3.277500325830848826e+00,2.493729394925151155e+01
3.282500326545388702e+00,2.509738838990404020e+01
3.287500327259928135e+00,2.490281589238350080e+01
3.292500327974468455e+00,2.498365340578072846e+01
3.297500328689007887e+00,2.540732528519890820e+01
3.302500329403547319e+00,2.604270851640831097e+01
3.307500330118087639e+00,2.668604824323614366e+01
3.312500330832627071e+00,2.723713574612543198e+01
3.317500331547166947e+00,2.762988095194896232e+01
3.322500332261706824e+00,2.787149700436458488e+01
3.327500332976246700e+00,2.787807155292017569e+01
3.332500333690786132e+00,2.810216074724149848e+01
3.337500334405326008e+00,2.877430535035358616e+01
3.342500335119865884e+00,2.964643894185110184e+01
3.347500335834405316e+00,3.018335520309494768e+01
3.352500336548945636e+00,3.064855386452171615e+01
3.357500337263485068e+00,3.104573850841921967e+01
3.362500337978024945e+00,3.161597843420258869e+01
3.367500338692564377e+00,3.264822501587570969e+01
3.372500339407104697e+00,3.398404192668454016e+01
3.377500340121644129e+00,3.531628067626320444e+01
3.382500340836183561e+00,3.685753764192571680e+01
3.387500341550723881e+00,3.904117335581543102e+01
3.392500342265263313e+00,4.209009912603687553e+01
3.397500342979803190e+00,4.664699554255480507e+01
3.402500343694343066e+00,5.270818088543558133e+01
3.407500344408882942e+00,6.026774564636968989e+01
3.412500345123422374e+00,6.964122196230363215e+01
3.417500345837962250e+00,8.077204113500943095e+01
3.422500346552502126e+00,9.304543743971316871e+01
3.427500347267041558e+00,1.062033040821664827e+02
3.432500347981581879e+00,1.190793311381335684e+02
3.437500348696121311e+00,1.272307804557725603e+02
3.442500349410661187e+00,1.239667449330148656e+02
3.447500350125201063e+00,1.128934366035383619e+02
3.452500350839740495e+00,9.466913048445957202e+01
3.457500351554280371e+00,7.632002150996032697e+01
3.462500352268820247e+00,6.333437125984045224e+01
3.467500352983360123e+00,5.528149599666130598e+01
3.472500353697899556e+00,4.986935333569999784e+01
3.477500354412439432e+00,4.623384888561031403e+01
3.482500355126979308e+00,4.407076373868909513e+01
3.487500355841518740e+00,4.274238288887903536e+01
3.492500356556058616e+00,4.197833141344199248e+01
3.497500357270598492e+00,4.144298780306968411e+01
3.502500357985138368e+00,4.094163020215103188e+01
3.507500358699677800e+00,4.063747742442910749e+01
3.512500359414218121e+00,4.054817943154733939e+01
3.517500360128757553e+00,4.046824164948912994e+01
3.522500360843297429e+00,4.040927155063917553e+01
3.527500361557837305e+00,4.025027772608149235e+01
3.532500362272376737e+00,4.010497945594067914e+01
3.537500362986916613e+00,4.003134040082062484e+01
3.542500363701456489e+00,4.009693725417764654e+01
3.547500364415996366e+00,4.045189675406828655e+01
3.552500365130535798e+00,4.104752361286881523e+01
3.557500365845075674e+00,4.187247605441206133e+01
3.562500366559615550e+00,4.298718964214305061e+01
3.567500367274154982e+00,4.406016267953725674e+01
3.572500367988694858e+00,4.477069668864646701e+01
3.577500368703234734e+00,4.534051262106333979e+01
3.582500369417774611e+00,4.567504724467011101e+01
3.587500370132314043e+00,4.565459083897701476e+01
3.592500370846854363e+00,4.509794075960559212e+01
3.597500371561393795e+00,4.371390900667381629e+01
3.602500372275933227e+00,4.194241719552690029e+01
3.607500372990473547e+00,4.009643381262492312e+01
3.612500373705012979e+00,3.850848910814579540e+01
3.617500374419552855e+00,3.748874394367112473e+01
3.622500375134092732e+00,3.656058549533366886e+01
3.627500375848632608e+00,3.595400493939513353e+01
3.632500376563172040e+00,3.557019706164260242e+01
3.637500377277712360e+00,3.513567402694940256e+01
3.642500377992251792e+00,3.468285619961000066e+01
3.647500378706791224e+00,3.440825695782154980e+01
3.652500379421331100e+00,3.424642678550344499e+01
3.657500380135870977e+00,3.421297085044830055e+01
3.662500380850410853e+00,3.381235540083110891e+01
3.667500381564950285e+00,3.294244878085874007e+01
3.672500382279490605e+00,3.199681635267018009e+01
3.677500382994030037e+00,3.142938724440455189e+01
3.682500383708569469e+00,3.134994385218237767e+01
3.687500384423109789e+00,3.135911329520422441e+01
3.692500385137649221e+00,3.104583445679168108e+01
3.697500385852189098e+00,3.065322102151833406e+01
3.702500386566728974e+00,3.023026435609506279e+01
3.707500387281268850e+00,3.015075440782851501e+01
3.712500387995808282e+00,3.021835172612770748e+01
3.717500388710348158e+00,2.974150811682545736e+01
3.722500389424888034e+00,2.896336776524725565e+01
3.727500390139427910e+00,2.817910732412258312e+01
3.732500390853967343e+00,2.775601648001497779e+01
3.737500391568507219e+00,2.761817812912511272e+01
3.742500392283047095e+00,2.742066271324847548e+01
3.747500392997586527e+00,2.702218446979907185e+01
3.752500393712126403e+00,2.665493175409437754e+01
3.757500394426666279e+00,2.620075112140921192e+01
3.762500395141205711e+00,2.578349351840302006e+01
3.767500395855746476e+00,2.537603942962425663e+01
3.772500396570285464e+00,2.486978740292238399e+01
3.777500397284825340e+00,2.447303051431140375e+01
3.782500397999365660e+00,2.415858820392952566e+01
3.787500398713904648e+00,2.388093884441627779e+01
3.792500399428444524e+00,2.361232203585655043e+01
3.797500400142984844e+00,2.328942439681520682e+01
3.802500400857523832e+00,2.290117863662214859e+01
3.807500401572063708e+00,2.245821545969010913e+01
3.812500402286604029e+00,2.199628153428216137e+01
3.817500403001143017e+00,2.145267381870462486e+01
3.822500403715683781e+00,2.082676202226286932e+01
3.827500404430223213e+00,2.050674031426427746e+01
3.832500405144762201e+00,2.031357263653865175e+01
3.837500405859302965e+00,1.999894802572077879e+01
3.842500406573842398e+00,1.967011581834736944e+01
3.847500407288382274e+00,1.948992837548655643e+01
3.852500408002922150e+00,1.936345607298835603e+01
3.857500408717461138e+00,1.899594018236342663e+01
3.862500409432001458e+00,1.863214223603426944e+01
3.867500410146541334e+00,1.808570193751182842e+01
3.872500410861080322e+00,1.771487568680015556e+01
3.877500411575620642e+00,1.753819820151073827e+01
3.882500412290160519e+00,1.724934457742517679e+01
3.887500413004699507e+00,1.699520646038860150e+01
3.892500413719240715e+00,1.685813081585729378e+01
3.897500414433779703e+00,1.681194409883732988e+01
3.902500415148318691e+00,1.658587437304305467e+01
3.907500415862859899e+00,1.625067191638157738e+01
3.912500416577398887e+00,1.575196493386175689e+01
3.917500417291938763e+00,1.542045242870119637e+01
3.922500418006479084e+00,1.528599111640954789e+01
3.927500418721018072e+00,1.518587179198777903e+01
3.932500419435557948e+00,1.500255126354193180e+01
3.937500420150097824e+00,1.493660157104579866e+01
3.942500420864637256e+00,1.491909401956274905e+01
3.947500421579177132e+00,1.492297002886937207e+01
3.952500422293717008e+00,1.485812169987701736e+01
3.957500423008256440e+00,1.455387472480504130e+01
3.962500423722797205e+00,1.430461216649177913e+01
3.967500424437336193e+00,1.396636259317608619e+01
3.972500425151876513e+00,1.399812087929302606e+01
3.977500425866416389e+00,1.389434332267859418e+01
3.982500426580955377e+00,1.379056898247233676e+01
3.987500427295495697e+00,1.370145678850838067e+01
3.992500428010035574e+00,1.357944032648799748e+01
3.997500428724574562e+00,1.352212529892932480e+01
4.002500429439114882e+00,1.348817087283970295e+01
4.007500430153654314e+00,1.334462244340028292e+01
4.012500430868193746e+00,1.304620240546751120e+01
4.017500431582734066e+00,1.277575204811506637e+01
4.022500432297273498e+00,1.277168516793278741e+01
4.027500433011812930e+00,1.297825662372486022e+01
4.032500433726354139e+00,1.322164876230743857e+01
4.037500434440892683e+00,1.358756541266063778e+01
4.042500435155433003e+00,1.412087788203888294e+01
4.047500435869973323e+00,1.441061641106034585e+01
4.052500436584511867e+00,1.459555489051780341e+01
4.057500437299052187e+00,1.519801213092443959e+01
4.062500438013592508e+00,1.577860650119561114e+01
4.067500438728131051e+00,1.652973127046448099e+01
4.072500439442671372e+00,1.753333659051088489e+01
4.077500440157211692e+00,1.867636528679486219e+01
4.082500440871750236e+00,2.022045500690330755e+01
4.087500441586291444e+00,2.224926488072173925e+01
4.092500442300830876e+00,2.504814470989879283e+01
4.097500443015369420e+00,2.947065108113963561e+01
4.102500443729910629e+00,3.513141845997057544e+01
4.107500444444450061e+00,4.191021802863878065e+01
4.112500445158989493e+00,5.061702726620671910e+01
4.117500445873529813e+00,6.092739371809130944e+01
4.122500446588069245e+00,7.370351043553336012e+01
4.127500447302608677e+00,9.013111783107524388e+01
4.132500448017148997e+00,1.112907622234964720e+02
4.137500448731688429e+00,1.399619340214182444e+02
4.142500449446227861e+00,1.737759607897229444e+02
4.147500450160768182e+00,2.036524391343297680e+02
4.152500450875307614e+00,2.147508338233009795e+02
4.157500451589847934e+00,2.067816044958382804e+02
4.162500452304387366e+00,1.854760542951052003e+02
4.167500453018926798e+00,1.491534380225375571e+02
4.172500453733467118e+00,1.114926601359000529e+02
4.177500454448006550e+00,8.098094418289122132e+01
4.182500455162545983e+00,5.909742655115570642e+01
4.187500455877086303e+00,4.408692966165335747e+01
4.192500456591625735e+00,3.378735454679548411e+01
4.197500457306165167e+00,2.662089178795758926e+01
4.202500458020705487e+00,2.136172171079977034e+01
4.207500458735244919e+00,1.791518918996627008e+01
4.212500459449784351e+00,1.544890716472229997e+01
4.217500460164324672e+00,1.340499418779108964e+01
4.222500460878864104e+00,1.187943843903684638e+01
4.227500461593404424e+00,1.078017878016282793e+01
4.232500462307943856e+00,1.010283107308100625e+01
4.237500463022484176e+00,9.537530220938094772e+00
4.242500463737023608e+00,8.941464347812996039e+00
4.247500464451563040e+00,8.187324505757374027e+00
4.252500465166103361e+00,7.355504381840148653e+00
4.257500465880642793e+00,6.801788286434543807e+00
4.262500466595182225e+00,6.495424883699456586e+00
4.267500467309722545e+00,6.245659174010540937e+00
4.272500468024261977e+00,5.978130199048507620e+00
4.277500468738801409e+00,5.542732369932650727e+00
4.282500469453341729e+00,5.000572254340966083e+00
4.287500470167881161e+00,4.681860422222825946e+00
4.292500470882420593e+00,4.087003975104437359e+00
4.297500471596961802e+00,3.637949319537710835e+00
4.302500472311500346e+00,3.227681678825888412e+00
4.307500473026040666e+00,2.975535151628946551e+00
4.312500473740580986e+00,3.000843835017349193e+00
4.317500474455119530e+00,2.881407400655803031e+00
4.322500475169659850e+00,2.811175420982294781e+00
4.327500475884200171e+00,2.817563043045765880e+00
4.332500476598738715e+00,2.765540343984469018e+00
4.337500477313279035e+00,2.677731207987108064e+00
4.342500478027819355e+00,2.273811519662217506e+00
4.347500478742357899e+00,1.852223031233222628e+00
4.352500479456899107e+00,1.533642600829125513e+00
4.357500480171438539e+00,1.234096206164849718e+00
4.362500480885977083e+00,1.198009481660676556e+00
4.367500481600518292e+00,1.230599075869406533e+00
4.372500482315056836e+00,1.357265962035739904e+00
4.377500483029597156e+00,1.423601541616221766e+00
4.382500483744137476e+00,1.478657907964475271e+00
4.387500484458676020e+00,1.314315522115862223e+00
4.392500485173216340e+00,8.041198827205562338e-01
4.397500485887756660e+00,4.725564283949097444e-01
4.402500486602295204e+00,1.644230963227073516e-01
4.407500487316835525e+00,0.000000000000000000e+00
4.412500488031375845e+00,1.255071929099926820e-01
4.417500488745914389e+00,2.604374322099829442e-01
4.422500489460455597e+00,6.325537373264182861e-01
4.427500490174995029e+00,1.116256089185526434e+00
4.432500490889533573e+00,1.175116830611671048e+00
4.437500491604074782e+00,9.805330100817286620e-01
4.442500492318614214e+00,1.080030825096741864e+00
4.447500493033153646e+00,1.376483151483796519e+00
4.452500493747693966e+00,1.689144699654661963e+00
4.457500494462233398e+00,2.181050696252100352e+00
4.462500495176772830e+00,2.893867958380155869e+00
4.467500495891313150e+00,3.954559932668360034e+00
4.472500496605852582e+00,5.785805396458272298e+00
4.477500497320392014e+00,8.236827315225298207e+00
4.482500498034932335e+00,1.114418385821625179e+01
4.487500498749471767e+00,1.435004842775208544e+01
4.492500499464012087e+00,1.778268451274931294e+01
4.497500500178551519e+00,2.111767005396353625e+01
4.502500500893091839e+00,2.402066477797967536e+01
4.507500501607631271e+00,2.638602714058021093e+01
4.512500502322170703e+00,2.807091466854569717e+01
4.517500503036711024e+00,2.877348830536868718e+01
4.522500503751250456e+00,2.785511700110214406e+01
4.527500504465789888e+00,2.528514089596103531e+01
4.532500505180330208e+00,2.157293919142296090e+01
4.537500505894869640e+00,1.718873703499821204e+01
4.542500506609409072e+00,1.290979692649148092e+01
4.547500507323949392e+00,9.282729509019816305e+00
4.552500508038488825e+00,6.959156410817627147e+00
4.557500508753028257e+00,5.376557413212253778e+00
4.562500509467568577e+00,4.088653751412948623e+00
4.567500510182108009e+00,2.981991366466957061e+00
4.572500510896648329e+00,2.313630114255488479e+00
4.577500511611187761e+00,2.132561001823205515e+00
4.582500512325727193e+00,2.381756968638683247e+00
4.587500513040267514e+00,2.898325474489183762e+00
4.592500513754806946e+00,3.518611038549749992e+00
4.597500514469346378e+00,3.980386401500027205e+00
4.602500515183886698e+00,4.751526841934605727e+00
4.607500515898426130e+00,5.715526533794729858e+00
4.612500516612965562e+00,6.856740245588184735e+00
4.617500517327505882e+00,8.089606973213108176e+00
4.622500518042045314e+00,9.001417273944639419e+00
4.627500518756584746e+00,9.878283725427934314e+00
4.632500519471125955e+00,1.054657158974413278e+01
4.637500520185664499e+00,1.093506312005962400e+01
4.642500520900204819e+00,1.088458890828690073e+01
4.647500521614745139e+00,1.039644097102620890e+01
4.652500522329283683e+00,9.465563667545097815e+00
4.657500523043824003e+00,8.469378162669158883e+00
4.662500523758364324e+00,7.303219438510950567e+00
4.667500524472902868e+00,6.213527212441306347e+00
4.672500525187443188e+00,5.505975819910077007e+00
4.677500525901983508e+00,5.221621675387666528e+00
4.682500526616522052e+00,5.121095166902989604e+00
4.687500527331063260e+00,4.924987618938246214e+00
4.692500528045602692e+00,4.909401829546027329e+00
4.697500528760141236e+00,4.868171308633463923e+00
4.702500529474682445e+00,5.179236010392344269e+00
4.707500530189221877e+00,5.410721434865990886e+00
4.712500530903761309e+00,5.648850004905739297e+00
4.717500531618301629e+00,6.014206935320430603e+00
4.722500532332841061e+00,6.518734861785446810e+00
4.727500533047380493e+00,6.940764358428509695e+00
4.732500533761920813e+00,7.242524924160306909e+00
4.737500534476460246e+00,7.459610314712733725e+00
4.742500535190999678e+00,7.651387478190656566e+00
4.747500535905539998e+00,7.892512668359245254e+00
4.752500536620079430e+00,8.198865282537724397e+00
4.757500537334618862e+00,8.526113535433978541e+00
4.762500538049159182e+00,9.322265728681429664e+00
4.767500538763698614e+00,1.012691341490494779e+01
4.772500539478238046e+00,1.114316132936846770e+01
4.777500540192778367e+00,1.175633466536862670e+01
4.782500540907317799e+00,1.198267902541306285e+01
4.787500541621858119e+00,1.224734504036581484e+01
4.792500542336397551e+00,1.271815912140368710e+01
4.797500543050936983e+00,1.413680021783642360e+01
4.802500543765477303e+00,1.539057716085960692e+01
4.807500544480016735e+00,1.658872260887233097e+01
4.812500545194556167e+00,1.741529832091976004e+01
4.817500545909096488e+00,1.781132406294733528e+01
4.822500546623636808e+00,1.847969093788452710e+01
4.827500547338175352e+00,1.911819361221159852e+01
4.832500548052715672e+00,1.964829008158864099e+01
4.837500548767255992e+00,2.062495274508040666e+01
4.842500549481794536e+00,2.157324677429983240e+01
4.847500550196334856e+00,2.269853519153872412e+01
4.852500550910875177e+00,2.387549254164741797e+01
4.857500551625414609e+00,2.510849307563222510e+01
4.862500552339954041e+00,2.631487491081662711e+01
4.867500553054494361e+00,2.749333602694014189e+01
4.872500553769033793e+00,2.848821649272446166e+01
4.877500554483574113e+00,2.949642595611123852e+01
4.882500555198113545e+00,3.071136454270640570e+01
4.887500555912652977e+00,3.214711108820500840e+01
4.892500556627193298e+00,3.422643583370859233e+01
4.897500557341732730e+00,3.627970179291480690e+01
4.902500558056272162e+00,3.805255518181354546e+01
4.907500558770812482e+00,3.936000867063916075e+01
4.912500559485352802e+00,4.069212375692637806e+01
4.917500560199891346e+00,4.260664992566705678e+01
4.922500560914431667e+00,4.467326903408257976e+01
4.927500561628971987e+00,4.643776767490732027e+01
4.932500562343510531e+00,4.803009992053461019e+01
4.937500563058050851e+00,4.982075939333316228e+01
4.942500563772590283e+00,5.231915573049394652e+01
4.947500564487130603e+00,5.483123787505155633e+01
4.952500565201670035e+00,5.688722845088631175e+01
4.957500565916209467e+00,5.939109886038755803e+01
4.962500566630749788e+00,6.184398847390531273e+01
4.967500567345289220e+00,6.493880912194833854e+01
4.972500568059828652e+00,6.793252903072999516e+01
4.977500568774368972e+00,7.069820529287727595e+01
4.982500569488909292e+00,7.391767185571620757e+01
4.987500570203447836e+00,7.710265768533730579e+01
4.992500570917988156e+00,8.110961830956875929e+01
4.997500571632528477e+00,8.546187937266654444e+01
5.002500572347067020e+00,9.038500650836766681e+01
5.007500573061607341e+00,9.611286613090669562e+01
5.012500573776147661e+00,1.035941073686157097e+02
5.017500574490687093e+00,1.134571584018160024e+02
5.022500575205226525e+00,1.257062713846992779e+02
5.027500575919766845e+00,1.419845229336110606e+02
5.032500576634306277e+00,1.637464520665084819e+02
5.037500577348845709e+00,1.894129063943694860e+02
5.042500578063386030e+00,2.180593050606489669e+02
5.047500578777925462e+00,2.485683792197998514e+02
5.052500579492465782e+00,2.784988854161810536e+02
5.057500580207005214e+00,3.062555579766404321e+02
5.062500580921544646e+00,3.308996864030951315e+02
5.067500581636084966e+00,3.508843448647248238e+02
5.072500582350624398e+00,3.678711036237534131e+02
5.077500583065163831e+00,3.828448361643617659e+02
5.082500583779704151e+00,3.926092636262822566e+02
5.087500584494244471e+00,3.850692424024599632e+02
5.092500585208783015e+00,3.565074975374940323e+02
5.097500585923323335e+00,3.179140905010776237e+02
5.102500586637863655e+00,2.689081721176879114e+02
5.107500587352402199e+00,2.197089298322173363e+02
5.112500588066942520e+00,1.798905620752072991e+02
5.117500588781482840e+00,1.519898222081677659e+02
5.122500589496022272e+00,1.331824101251410184e+02
5.127500590210561704e+00,1.197952708366892125e+02
5.132500590925102024e+00,1.095330043820085848e+02
5.137500591639641456e+00,1.017795015711174074e+02
5.142500592354181776e+00,9.578138514697184291e+01
5.147500593068720320e+00,9.075884962921685428e+01
5.152500593783260641e+00,8.679115936106495610e+01
5.157500594497800961e+00,8.312103083351865962e+01
5.162500595212339505e+00,7.951104748029507618e+01
5.167500595926879825e+00,7.617734498056279335e+01
5.172500596641420145e+00,7.331927434488358131e+01
5.177500597355959577e+00,7.072419927849637133e+01
5.182500598070499009e+00,6.831891830046004088e+01
5.187500598785039330e+00,6.621440351318994999e+01
5.192500599499578762e+00,6.436144025089561183e+01
5.197500600214118194e+00,6.263394006786637647e+01
5.202500600928658514e+00,6.077510773066268257e+01
5.207500601643197946e+00,5.851224834702350108e+01
5.212500602357738266e+00,5.620789041274747433e+01
5.217500603072277698e+00,5.420466496208149465e+01
5.222500603786817130e+00,5.253425942514962799e+01
5.227500604501357451e+00,5.057217226662686471e+01
5.232500605215896883e+00,4.851915829824105231e+01
5.237500605930436315e+00,4.660844303424562440e+01
5.242500606644976635e+00,4.498777225196926111e+01
5.247500607359516955e+00,4.364064612267691246e+01
5.252500608074055499e+00,4.217205529555889143e+01
5.257500608788595819e+00,4.072992865163763554e+01
5.262500609503136140e+00,3.928110376275628823e+01
5.267500610217674684e+00,3.777609129587949610e+01
5.272500610932215004e+00,3.625420806973477283e+01
5.277500611646755324e+00,3.486417642005017115e+01
5.282500612361294756e+00,3.369438543002507913e+01
5.287500613075834188e+00,3.280267608658618883e+01
5.292500613790374508e+00,3.180359103624505224e+01
5.297500614504913941e+00,3.056344294447865195e+01
5.302500615219453373e+00,2.922597977893508414e+01
5.307500615933993693e+00,2.797785722154299037e+01
5.312500616648533125e+00,2.710472997711207199e+01
5.317500617363073445e+00,2.651633722255138537e+01
5.322500618077612877e+00,2.619474479437315040e+01
5.327500618792152309e+00,2.571634836252235345e+01
5.332500619506692630e+00,2.546134608663157906e+01
5.337500620221232062e+00,2.544076498320902147e+01
5.342500620935771494e+00,2.573756199985967896e+01
5.347500621650311814e+00,2.628625658364842366e+01
5.352500622364851246e+00,2.686093727290000288e+01
5.357500623079390678e+00,2.741895066204335762e+01
5.362500623793930998e+00,2.822352103052196526e+01
5.367500624508470430e+00,2.929507480568491928e+01
5.372500625223009862e+00,3.037114046513602261e+01
5.377500625937550183e+00,3.153888637853111732e+01
5.382500626652089615e+00,3.301435664742439258e+01
5.387500627366629935e+00,3.434873941581867030e+01
5.392500628081169367e+00,3.495925065922949670e+01
5.397500628795708799e+00,3.437092495617207533e+01
5.402500629510249119e+00,3.223785572253814280e+01
5.407500630224788551e+00,2.904406191081932320e+01
5.412500630939327984e+00,2.527719406479320696e+01
5.417500631653868304e+00,2.138632850898289917e+01
5.422500632368408624e+00,1.798048419435974665e+01
5.427500633082947168e+00,1.555613124326686147e+01
5.432500633797487488e+00,1.357641458223838526e+01
5.437500634512027808e+00,1.183635779941801047e+01
5.442500635226567240e+00,1.073092955081568789e+01
5.447500635941106673e+00,1.026285606030717190e+01
5.452500636655646993e+00,1.005372951807487425e+01
5.457500637370186425e+00,9.615889184125194333e+00
5.462500638084725857e+00,8.957279786729998250e+00
5.467500638799266177e+00,8.470337020473039047e+00
5.472500639513805609e+00,7.811931393910640509e+00
5.477500640228345929e+00,7.464647526447720338e+00
5.482500640942885362e+00,7.352293181542904676e+00
5.487500641657424794e+00,7.282861913195461057e+00
5.492500642371965114e+00,7.276505478058197696e+00
5.497500643086504546e+00,6.900159079578088495e+00
