1.502500072169232093e+00,5.761228497379875080e+00
1.507500072883772191e+00,7.456451559452489164e+00
1.512500073598311845e+00,8.911778418902883914e+00
1.517500074312851721e+00,1.035035190682771145e+01
1.522500075027391375e+00,1.220145913750502586e+01
1.527500075741931251e+00,1.360620780995679979e+01
1.532500076456470905e+00,1.460264586825820743e+01
1.537500077171010782e+00,1.555874493076515819e+01
1.542500077885550436e+00,1.622635539843201968e+01
1.547500078600090090e+00,1.709157879887015952e+01
1.552500079314630188e+00,1.799152806928930204e+01
1.557500080029169620e+00,1.867435566114357925e+01
1.562500080743709496e+00,1.919094668329512388e+01
1.567500081458249372e+00,1.923680735714185630e+01
1.572500082172789027e+00,1.896459556106640321e+01
1.577500082887328903e+00,1.889500952867251726e+01
1.582500083601868335e+00,1.895392776722201233e+01
1.587500084316408433e+00,1.872948916113330142e+01
1.592500085030948087e+00,1.826515329960733425e+01
1.597500085745487741e+00,1.775959063777520441e+01
1.602500086460027617e+00,1.767971963004043801e+01
1.607500087174567494e+00,1.799660763250744822e+01
1.612500087889107148e+00,1.764463840653456828e+01
1.617500088603646802e+00,1.694207488553018948e+01
1.622500089318186678e+00,1.634539269328388400e+01
1.627500090032726332e+00,1.621798744118439117e+01
1.632500090747266430e+00,1.670053607777003890e+01
1.637500091461805862e+00,1.688134603085637764e+01
1.642500092176345738e+00,1.610229394888898469e+01
1.647500092890885615e+00,1.524254764504399873e+01
1.652500093605425047e+00,1.458663862689945745e+01
1.657500094319965145e+00,1.418356245777761160e+01
1.662500095034504799e+00,1.415183248687401374e+01
1.667500095749044675e+00,1.463611438958923827e+01
1.672500096463584329e+00,1.542230797314692836e+01
1.677500097178123983e+00,1.545866535883521919e+01
1.682500097892663860e+00,1.452842893931205026e+01
1.687500098607203736e+00,1.307328720668954247e+01
1.692500099321743390e+00,1.146321119554090728e+01
1.697500100036283044e+00,1.062356021271136797e+01
1.702500100750823142e+00,1.035905646331718799e+01
1.707500101465362574e+00,1.022790005730985285e+01
1.712500102179902450e+00,1.031883811731881906e+01
1.717500102894442326e+00,9.825169921368569703e+00
1.722500103608981981e+00,9.326698822665491662e+00
1.727500104323521857e+00,8.870085048022303909e+00
1.732500105038061289e+00,8.526493417893561855e+00
1.737500105752601387e+00,8.643973732168376500e+00
1.742500106467141041e+00,8.987719573679100904e+00
1.747500107181680695e+00,9.094285851696326972e+00
1.752500107896220571e+00,9.539838327602808477e+00
1.757500108610760448e+00,1.010497906806335777e+01
1.762500109325300102e+00,1.089565710303924106e+01
1.767500110039839756e+00,1.219711131013679051e+01
1.772500110754379632e+00,1.363430133584063242e+01
1.777500111468919286e+00,1.528659266691727225e+01
1.782500112183459384e+00,1.768241606683858436e+01
1.787500112897998816e+00,2.126603394558645732e+01
1.792500113612538692e+00,2.618544320386007485e+01
1.797500114327078569e+00,3.250807348723691348e+01
1.802500115041618223e+00,4.011110702216353729e+01
1.807500115756158099e+00,5.157292760214488681e+01
1.812500116470697753e+00,7.056862841162967470e+01
1.817500117185237629e+00,1.034777085704121760e+02
1.822500117899777283e+00,1.659330538575372884e+02
1.827500118614316937e+00,2.792041459506494903e+02
1.832500119328856814e+00,4.058902997413364915e+02
1.837500120043396690e+00,4.455672697909234898e+02
1.842500120757936344e+00,3.852119329579720670e+02
1.847500121472475998e+00,2.502419612599874199e+02
1.852500122187016096e+00,1.474803604576156317e+02
1.857500122901555528e+00,9.651756112891587236e+01
1.862500123616095404e+00,6.940169577863071027e+01
1.867500124330635058e+00,5.275871603519010478e+01
1.872500125045175157e+00,4.262985603897118381e+01
1.877500125759714811e+00,3.761570593783017102e+01
1.882500126474254243e+00,3.677574802897078143e+01
1.887500127188794341e+00,4.005538923856084921e+01
1.892500127903333995e+00,4.529572675550343774e+01
1.897500128617873427e+00,4.816732489553874075e+01
1.902500129332413525e+00,4.517546413317830911e+01
1.907500130046953402e+00,3.780082714522416154e+01
1.912500130761493056e+00,3.126152274478192794e+01
1.917500131476032710e+00,2.833135371162967431e+01
1.922500132190572586e+00,2.759064077480411470e+01
1.927500132905112240e+00,2.747892647787506348e+01
1.932500133619652338e+00,2.716124715933199241e+01
1.937500134334191770e+00,2.727801088988195488e+01
1.942500135048731869e+00,2.771935050728814076e+01
1.947500135763271523e+00,2.856674349679349234e+01
1.952500136477810955e+00,2.936440482065131619e+01
1.957500137192351053e+00,2.983348980613800450e+01
1.962500137906890707e+00,3.015682315650252576e+01
1.967500138621430139e+00,3.079768557899768666e+01
1.972500139335970237e+00,3.127593683858566465e+01
1.977500140050510113e+00,3.154469423146184681e+01
1.982500140765049768e+00,3.147919367566544224e+01
1.987500141479589422e+00,3.159123673908879937e+01
1.992500142194129298e+00,3.196510373184264608e+01
1.997500142908669396e+00,3.252272094891509369e+01
2.002500143623208384e+00,3.318091775648468911e+01
2.007500144337748704e+00,3.380760335587763166e+01
2.012500145052288580e+00,3.427910931891329938e+01
2.017500145766828012e+00,3.470379188878911236e+01
2.022500146481367889e+00,3.486566601915632191e+01
2.027500147195907765e+00,3.472611436428002207e+01
2.032500147910447641e+00,3.418145564411503301e+01
2.037500148624987073e+00,3.341221833156350840e+01
2.042500149339526949e+00,3.293514261113330122e+01
2.047500150054066825e+00,3.303848311876600974e+01
2.052500150768606257e+00,3.399087125189817016e+01
2.057500151483146134e+00,3.554451952045906182e+01
2.062500152197686010e+00,3.724265563411984203e+01
2.067500152912225886e+00,3.928112529063849934e+01
2.072500153626765762e+00,4.224447616530335381e+01
2.077500154341305194e+00,4.788638394131771747e+01
2.082500155055845070e+00,5.795030050808162514e+01
2.087500155770384946e+00,7.514888511838853447e+01
2.092500156484924378e+00,9.925824267445591431e+01
2.097500157199464255e+00,1.221500587424068272e+02
2.102500157914004575e+00,1.393146403283992640e+02
2.107500158628544007e+00,1.633859097796916444e+02
2.112500159343083439e+00,2.356730820352523779e+02
2.117500160057623759e+00,3.706259661438828061e+02
2.122500160772163191e+00,4.126881452002460264e+02
2.127500161486702623e+00,3.604005530093509151e+02
2.132500162201242500e+00,1.976858979189418051e+02
2.137500162915782820e+00,1.029064020815176264e+02
2.142500163630322252e+00,6.843798969090039463e+01
2.147500164344861684e+00,5.123571667382464057e+01
2.152500165059402004e+00,4.100253290100079084e+01
2.157500165773941436e+00,3.472303463249721744e+01
2.162500166488480868e+00,3.062312028337987613e+01
2.167500167203021189e+00,2.840546406039192107e+01
2.172500167917561065e+00,2.795795102436022717e+01
2.177500168632100497e+00,2.951264315840910513e+01
2.182500169346640373e+00,3.353484797518558480e+01
2.187500170061180249e+00,4.068863365723530023e+01
2.192500170775719681e+00,5.074964033990852386e+01
2.197500171490259557e+00,6.256446121843396213e+01
2.202500172204799433e+00,6.877180344010110957e+01
2.207500172919339310e+00,6.220327546123854745e+01
2.212500173633879186e+00,4.425466390609847167e+01
2.217500174348418618e+00,2.773621433194483643e+01
2.222500175062958494e+00,1.973533264839284129e+01
2.227500175777497926e+00,1.623566471053231908e+01
2.232500176492037802e+00,1.434442176161564930e+01
2.237500177206577678e+00,1.292351446945252746e+01
2.242500177921117555e+00,1.202430634752886363e+01
2.247500178635657431e+00,1.160099266436225207e+01
2.252500179350196863e+00,1.157844102274066245e+01
2.257500180064736739e+00,1.192305317915355545e+01
2.262500180779277059e+00,1.326431656044786678e+01
2.267500181493816047e+00,1.668694904216476971e+01
2.272500182208355923e+00,2.309347829714886302e+01
2.277500182922896244e+00,3.186018662263489887e+01
2.282500183637435676e+00,3.759614414620386924e+01
2.287500184351975108e+00,3.568468221724776868e+01
2.292500185066515428e+00,2.720471909332007954e+01
2.297500185781055304e+00,1.806793645652879832e+01
2.302500186495594292e+00,1.301819958223694584e+01
2.307500187210134612e+00,1.106197726358863065e+01
2.312500187924674488e+00,1.027241896256208520e+01
2.317500188639213921e+00,9.235735427786266882e+00
2.322500189353753797e+00,8.501119351387160350e+00
2.327500190068293673e+00,8.256923350018269048e+00
2.332500190782833549e+00,8.789583307188934214e+00
2.337500191497372981e+00,9.487707731184627846e+00
2.342500192211912857e+00,9.909277464518652323e+00
2.347500192926452733e+00,1.040450945585178033e+01
2.352500193640992165e+00,1.137083112758728021e+01
2.357500194355532042e+00,1.433176831765189263e+01
2.362500195070071918e+00,2.119109567241980585e+01
2.367500195784611794e+00,3.334187595562474371e+01
2.372500196499151670e+00,5.123231698419448321e+01
2.377500197213691102e+00,6.431682143515121197e+01
2.382500197928230978e+00,6.091459890834460111e+01
2.387500198642770854e+00,4.425840250087480854e+01
2.392500199357310287e+00,2.508367065492632264e+01
2.397500200071850163e+00,1.541368340987287411e+01
2.402500200786390039e+00,1.092595644732301707e+01
2.407500201500929915e+00,8.838502079501495245e+00
2.412500202215469347e+00,7.589303128227356865e+00
2.417500202930009223e+00,6.639810241370128097e+00
2.422500203644549099e+00,6.289761230762280775e+00
2.427500204359088531e+00,6.392574140558735962e+00
2.432500205073628408e+00,6.778015706195787971e+00
2.437500205788168728e+00,7.617618836763938361e+00
2.442500206502708160e+00,9.173889159857878894e+00
2.447500207217247592e+00,1.221601547265316867e+01
2.452500207931787912e+00,1.628921788827261707e+01
2.457500208646327344e+00,1.941634695869203142e+01
2.462500209360866776e+00,1.937840125465743313e+01
2.467500210075407097e+00,1.585484719167141066e+01
2.472500210789946973e+00,1.090881800635008858e+01
2.477500211504486405e+00,7.111350818696735132e+00
2.482500212219026281e+00,5.253727942400928441e+00
2.487500212933566157e+00,4.278263019335327044e+00
2.492500213648105589e+00,3.873851558330102307e+00
2.497500214362645465e+00,4.149615956348611689e+00
2.502500215077185342e+00,4.763445539174767873e+00
2.507500215791725218e+00,6.094298809112274284e+00
2.512500216506264650e+00,8.003189774695613323e+00
2.517500217220804526e+00,9.584652796007731013e+00
2.522500217935344402e+00,1.008397891435362226e+01
2.527500218649883834e+00,8.949553500274646467e+00
2.532500219364423710e+00,7.153412895686528827e+00
2.537500220078963586e+00,5.448934845060421139e+00
2.542500220793503463e+00,4.286121700024978054e+00
2.547500221508043339e+00,4.062393877856720792e+00
2.552500222222582771e+00,4.414185321906472836e+00
2.557500222937122647e+00,5.049859762791015783e+00
2.562500223651662967e+00,5.880997340893998171e+00
2.567500224366201955e+00,6.595636795258997154e+00
2.572500225080741831e+00,7.620525220824504231e+00
2.577500225795282152e+00,9.989739895955779048e+00
2.582500226509821584e+00,1.474517046152288913e+01
2.587500227224361016e+00,2.438326574840129979e+01
2.592500227938901336e+00,4.242418661081632081e+01
2.597500228653441212e+00,7.037716847646868246e+01
2.602500229367980644e+00,9.977836314469300305e+01
2.607500230082520076e+00,1.037248964049131246e+02
2.612500230797060397e+00,8.435393297930249901e+01
2.617500231511599829e+00,4.984020460019462462e+01
2.622500232226139261e+00,2.566682299958961266e+01
2.627500232940679581e+00,1.474561072091267988e+01
2.632500233655219457e+00,9.279649948335816134e+00
2.637500234369758889e+00,6.763099402492969148e+00
2.642500235084298765e+00,5.667778814306416280e+00
2.647500235798838641e+00,5.394249248409437314e+00
2.652500236513378074e+00,6.143761346477958796e+00
2.657500237227917950e+00,8.593639849845430945e+00
2.662500237942457826e+00,1.364578823929321061e+01
2.667500238656997702e+00,2.084954029865627945e+01
2.672500239371537578e+00,2.701286617060401340e+01
2.677500240086077010e+00,2.859681205498628742e+01
2.682500240800616886e+00,2.564933810052838226e+01
2.687500241515156763e+00,2.087032084729298731e+01
2.692500242229696195e+00,1.750486377460157428e+01
2.697500242944236071e+00,1.620169573956724207e+01
2.702500243658775947e+00,1.592744710116380702e+01
2.707500244373315823e+00,1.546832818803369491e+01
2.712500245087855255e+00,1.413304067644048700e+01
2.717500245802395131e+00,1.224160815766373389e+01
2.722500246516935007e+00,1.065561905889848049e+01
2.727500247231474440e+00,9.371610433284786268e+00
2.732500247946014316e+00,9.323466642504740776e+00
2.737500248660554636e+00,1.100461174054044022e+01
2.742500249375094068e+00,1.562581587109406200e+01
2.747500250089633500e+00,2.541915034663838924e+01
2.752500250804173820e+00,4.208531430948755769e+01
2.757500251518713252e+00,6.492644723270279883e+01
2.762500252233252684e+00,8.734686134286289416e+01
2.767500252947793005e+00,9.615608117173087521e+01
2.772500253662332881e+00,8.623495073486418505e+01
2.777500254376872313e+00,6.315767332740404072e+01
2.782500255091412189e+00,3.533667846829121117e+01
2.787500255805952065e+00,1.737989118822417822e+01
2.792500256520491497e+00,8.331424169169395100e+00
2.797500257235031373e+00,4.076729112379211983e+00
2.802500257949571250e+00,2.204016416946899426e+00
2.807500258664111126e+00,2.149396782181838716e+00
2.812500259378650558e+00,4.083386335365787545e+00
2.817500260093190434e+00,8.658282120830108397e+00
2.822500260807730310e+00,1.686112840933492407e+01
2.827500261522270186e+00,2.873487758752025911e+01
2.832500262236809618e+00,4.082858547117581338e+01
2.837500262951349495e+00,4.482152629623692519e+01
2.842500263665889371e+00,3.911151059063246294e+01
2.847500264380429247e+00,2.662628654221828128e+01
2.852500265094968679e+00,1.451088741162436691e+01
2.857500265809508555e+00,8.160163271267094842e+00
2.862500266524048875e+00,5.177216064664548867e+00
2.867500267238588307e+00,4.269883982152407498e+00
2.872500267953127739e+00,4.573220709638690096e+00
2.877500268667668060e+00,5.197499579693840133e+00
2.882500269382207492e+00,5.969516062478646745e+00
2.887500270096746924e+00,7.015534543773469522e+00
2.892500270811286800e+00,8.309872310032005771e+00
2.897500271525826676e+00,1.018967005686550920e+01
2.902500272240366552e+00,1.261603080572331237e+01
2.907500272954905984e+00,1.536917981665942534e+01
2.912500273669446305e+00,1.824771385656197253e+01
2.917500274383985737e+00,2.167486340682899026e+01
2.922500275098525169e+00,2.592163719525632359e+01
2.927500275813065489e+00,3.040699309510591775e+01
2.932500276527604921e+00,3.569380980541802728e+01
2.937500277242144797e+00,4.219002820905188855e+01
2.942500277956684673e+00,4.958059717407883227e+01
2.947500278671224549e+00,5.849504557587260933e+01
2.952500279385763982e+00,7.016907287388045233e+01
2.957500280100304302e+00,8.489282181729532795e+01
2.962500280814843734e+00,1.051761616487687547e+02
2.967500281529383166e+00,1.336903384956165723e+02
2.972500282243923486e+00,1.740148015422706180e+02
2.977500282958462918e+00,2.365624959995979566e+02
2.982500283673002794e+00,3.446082749707002222e+02
2.987500284387542226e+00,5.233827715217842069e+02
2.992500285102082547e+00,7.733346667491209701e+02
2.997500285816621979e+00,1.024341779867484547e+03
3.002500286531161411e+00,1.103746651706786906e+03
3.007500287245701731e+00,9.735594255719904595e+02
3.012500287960241163e+00,6.950318828881690933e+02
3.017500288674781039e+00,3.893763152713485169e+02
3.022500289389320915e+00,2.170043245778531968e+02
3.027500290103860792e+00,1.375859049360733479e+02
3.032500290818400224e+00,9.713376281533390966e+01
3.037500291532940100e+00,7.277754798343192988e+01
3.042500292247479976e+00,5.654775853643315031e+01
3.047500292962019408e+00,4.496643914135535169e+01
3.052500293676559728e+00,3.644464197415908302e+01
3.057500294391099160e+00,3.006334102687441145e+01
3.062500295105639037e+00,2.487952341667465816e+01
3.067500295820178913e+00,2.074433513830695119e+01
3.072500296534718789e+00,1.752692750011044609e+01
3.077500297249258221e+00,1.500425814987420381e+01
3.082500297963798097e+00,1.326099341904932771e+01
3.087500298678337973e+00,1.175481594039501942e+01
3.092500299392877405e+00,1.046480111327571194e+01
3.097500300107417281e+00,9.280272084579110015e+00
3.102500300821957158e+00,8.200171087051728591e+00
3.107500301536497034e+00,7.524679312786361152e+00
3.112500302251036466e+00,7.047355585533523481e+00
3.117500302965576342e+00,6.760092415820622591e+00
3.122500303680116218e+00,6.540158237708965316e+00
3.127500304394655650e+00,6.205647848669798350e+00
3.132500305109195970e+00,5.890207751801938230e+00
3.137500305823735403e+00,5.893408470699682766e+00
3.142500306538275279e+00,5.924915692444130855e+00
3.147500307252815155e+00,5.911313998478362919e+00
3.152500307967354587e+00,5.674909355247052645e+00
3.157500308681894463e+00,5.263379993502326215e+00
3.162500309396434339e+00,4.815834758309563313e+00
3.167500310110974215e+00,4.564003294987230674e+00
3.172500310825513647e+00,4.301840541682963703e+00
3.177500311540053524e+00,4.086210323509249065e+00
3.182500312254593400e+00,4.064796729877627968e+00
3.187500312969132832e+00,4.286925648080227802e+00
3.192500313683672708e+00,4.500531316398792114e+00
3.197500314398212584e+00,4.722163648694049698e+00
3.202500315112752460e+00,5.010303664460934669e+00
3.207500315827291892e+00,5.202118860286134350e+00
3.212500316541832213e+00,5.294719313724783660e+00
3.217500317256371645e+00,5.662748015688748637e+00
3.222500317970911521e+00,5.885987071972408557e+00
3.227500318685451397e+00,5.886198523916220893e+00
3.232500319399990829e+00,5.813202229613125382e+00
3.237500320114530705e+00,5.731582407221651465e+00
3.242500320829070581e+00,5.975881727103796948e+00
3.247500321543610458e+00,6.397396966459893974e+00
3.252500322258149890e+00,6.790143365132109921e+00
3.257500322972690210e+00,7.144730358357776367e+00
3.262500323687229642e+00,7.488724125926182751e+00
3.267500324401769074e+00,8.144826303442243898e+00
3.272500325116308950e+00,9.177559773663801934e+00
3.277500325830848826e+00,1.018935020979091632e+01
3.282500326545388702e+00,1.096051020664151565e+01
3.287500327259928135e+00,1.155452492549642329e+01
3.292500327974468455e+00,1.200951937956716620e+01
3.297500328689007887e+00,1.179049842453764541e+01
3.302500329403547319e+00,1.137195784285506761e+01
3.307500330118087639e+00,1.104684430496882896e+01
3.312500330832627071e+00,1.110560200049047808e+01
3.317500331547166947e+00,1.148268753106890472e+01
3.322500332261706824e+00,1.192838387552819768e+01
3.327500332976246700e+00,1.244977939406624046e+01
3.332500333690786132e+00,1.288019531877796453e+01
3.337500334405326008e+00,1.338593013870752202e+01
3.342500335119865884e+00,1.390275252005415041e+01
3.347500335834405316e+00,1.445822796661025222e+01
3.352500336548945636e+00,1.490908454269600725e+01
3.357500337263485068e+00,1.521098826406142734e+01
3.362500337978024945e+00,1.543517517823818253e+01
3.367500338692564377e+00,1.565446821051403958e+01
3.372500339407104697e+00,1.596097735951497043e+01
3.377500340121644129e+00,1.643552108419032720e+01
3.382500340836183561e+00,1.673484554235875521e+01
3.387500341550723881e+00,1.734696516714166137e+01
3.392500342265263313e+00,1.832633112425440913e+01
3.397500342979803190e+00,1.963736768921717157e+01
3.402500343694343066e+00,2.127800740385953304e+01
3.407500344408882942e+00,2.283065543204259029e+01
3.412500345123422374e+00,2.402478111264400695e+01
3.417500345837962250e+00,2.471344994222772584e+01
3.422500346552502126e+00,2.470660604599424914e+01
3.427500347267041558e+00,2.471449258818063299e+01
3.432500347981581879e+00,2.474917154769320859e+01
3.437500348696121311e+00,2.523414285897240461e+01
3.442500349410661187e+00,2.631833977355876186e+01
3.447500350125201063e+00,2.775085420212542431e+01
3.452500350839740495e+00,2.946293744713409524e+01
3.457500351554280371e+00,3.158866060345661708e+01
3.462500352268820247e+00,3.439774536915251701e+01
3.467500352983360123e+00,3.781530891874245981e+01
3.472500353697899556e+00,4.182860218468471203e+01
3.477500354412439432e+00,4.616260800213001403e+01
3.482500355126979308e+00,5.103806723218997377e+01
3.487500355841518740e+00,5.729830981684483504e+01
3.492500356556058616e+00,6.655058168345851755e+01
3.497500357270598492e+00,8.122482160046268973e+01
3.502500357985138368e+00,1.037288430623380009e+02
3.507500358699677800e+00,1.347792669070126408e+02
3.512500359414218121e+00,1.733315750270119224e+02
3.517500360128757553e+00,2.168245866880255335e+02
3.522500360843297429e+00,2.443546833826301281e+02
3.527500361557837305e+00,2.320315827562770892e+02
3.532500362272376737e+00,1.965494750821042658e+02
3.537500362986916613e+00,1.372306939154353245e+02
3.542500363701456489e+00,8.843062332054222452e+01
3.547500364415996366e+00,6.386820324193735132e+01
3.552500365130535798e+00,5.117497125261735391e+01
3.557500365845075674e+00,4.375986968316442471e+01
3.562500366559615550e+00,3.936286500670541955e+01
3.567500367274154982e+00,3.698094271215052231e+01
3.572500367988694858e+00,3.557904480438361361e+01
3.577500368703234734e+00,3.456892112281002483e+01
3.582500369417774611e+00,3.366304169505974642e+01
3.587500370132314043e+00,3.281481280162552139e+01
3.592500370846854363e+00,3.194138581393752929e+01
3.597500371561393795e+00,3.097251583712420597e+01
3.602500372275933227e+00,3.017557391722419879e+01
3.607500372990473547e+00,2.978066911167826447e+01
3.612500373705012979e+00,2.992693755200684791e+01
3.617500374419552855e+00,3.056561861586249051e+01
3.622500375134092732e+00,3.160055785689110053e+01
3.627500375848632608e+00,3.316304831350026916e+01
3.632500376563172040e+00,3.564771918090531244e+01
3.637500377277712360e+00,3.877317423903531335e+01
3.642500377992251792e+00,4.234273404020166254e+01
3.647500378706791224e+00,4.696385729598529224e+01
3.652500379421331100e+00,5.325877320162129536e+01
3.657500380135870977e+00,6.123588036194553297e+01
3.662500380850410853e+00,6.940989449663692312e+01
3.667500381564950285e+00,7.564187529584813774e+01
3.672500382279490605e+00,7.770367954536675370e+01
3.677500382994030037e+00,7.454422699591606261e+01
3.682500383708569469e+00,6.658637536331292495e+01
3.687500384423109789e+00,5.637758561182869244e+01
3.692500385137649221e+00,4.583354378051672029e+01
3.697500385852189098e+00,3.691171445016425423e+01
3.702500386566728974e+00,3.039439128055425954e+01
3.707500387281268850e+00,2.607500682507213696e+01
3.712500387995808282e+00,2.350654561679260723e+01
3.717500388710348158e+00,2.207155149284960771e+01
3.722500389424888034e+00,2.146656362973993737e+01
3.727500390139427910e+00,2.142819076222150443e+01
3.732500390853967343e+00,2.187810019713060683e+01
3.737500391568507219e+00,2.271067650493318979e+01
3.742500392283047095e+00,2.398976834604110309e+01
3.747500392997586527e+00,2.501652904712602776e+01
3.752500393712126403e+00,2.570484384735522099e+01
3.757500394426666279e+00,2.608367975204703271e+01
3.762500395141205711e+00,2.587823177304460387e+01
3.767500395855746476e+00,2.485214704994825752e+01
3.772500396570285464e+00,2.307156293618953669e+01
3.777500397284825340e+00,2.088652179408916254e+01
3.782500397999365660e+00,1.875845512585152619e+01
3.787500398713904648e+00,1.696120286080736150e+01
3.792500399428444524e+00,1.589055315046903161e+01
3.797500400142984844e+00,1.529379559131791666e+01
3.802500400857523832e+00,1.473779983821685846e+01
3.807500401572063708e+00,1.429907908110169501e+01
3.812500402286604029e+00,1.396482153925103376e+01
3.817500403001143017e+00,1.375718855711647848e+01
3.822500403715683781e+00,1.373075112788723118e+01
3.827500404430223213e+00,1.374162441510026156e+01
3.832500405144762201e+00,1.396498484260740724e+01
3.837500405859302965e+00,1.429344655954463406e+01
3.842500406573842398e+00,1.494140104006237380e+01
3.847500407288382274e+00,1.570569823579205604e+01
3.852500408002922150e+00,1.625959188846667303e+01
3.857500408717461138e+00,1.654421902222804874e+01
3.862500409432001458e+00,1.650663705312081220e+01
3.867500410146541334e+00,1.612652667006926777e+01
3.872500410861080322e+00,1.580480267483955004e+01
3.877500411575620642e+00,1.589184274191961777e+01
3.882500412290160519e+00,1.642811852215180579e+01
3.887500413004699507e+00,1.749234017409600028e+01
3.892500413719240715e+00,1.897638922547190532e+01
3.897500414433779703e+00,2.016234494045926340e+01
3.902500415148318691e+00,2.059296771824648431e+01
3.907500415862859899e+00,1.997987170056410378e+01
3.912500416577398887e+00,1.839517516241943440e+01
3.917500417291938763e+00,1.615821926220615978e+01
3.922500418006479084e+00,1.378893718243682542e+01
3.927500418721018072e+00,1.220420422750794387e+01
3.932500419435557948e+00,1.161423064607151900e+01
3.937500420150097824e+00,1.200989683621884296e+01
3.942500420864637256e+00,1.304553532800844096e+01
3.947500421579177132e+00,1.453014172106941260e+01
3.952500422293717008e+00,1.650223430384613721e+01
3.957500423008256440e+00,1.896123833104479672e+01
3.962500423722797205e+00,2.136589910967222750e+01
3.967500424437336193e+00,2.338123024132539740e+01
3.972500425151876513e+00,2.413965253830690472e+01
3.977500425866416389e+00,2.259414343778723833e+01
3.982500426580955377e+00,1.886137665034169686e+01
3.987500427295495697e+00,1.433610204286009093e+01
3.992500428010035574e+00,1.054054139059815043e+01
3.997500428724574562e+00,7.999479930008419615e+00
4.002500429439114882e+00,6.544801270944958560e+00
4.007500430153654314e+00,5.927517426056738259e+00
4.012500430868193746e+00,5.939289806974443309e+00
4.017500431582734066e+00,6.112838159952616479e+00
4.022500432297273498e+00,6.587632704633392677e+00
4.027500433011812930e+00,7.460296966171370059e+00
4.032500433726354139e+00,8.685974962824388967e+00
4.037500434440892683e+00,9.974754545888913526e+00
4.042500435155433003e+00,1.141514152088421952e+01
4.047500435869973323e+00,1.277123982342283171e+01
4.052500436584511867e+00,1.394677129469079091e+01
4.057500437299052187e+00,1.449908324989524999e+01
4.062500438013592508e+00,1.397453666194587640e+01
4.067500438728131051e+00,1.258840728458892499e+01
4.072500439442671372e+00,1.094027871889989001e+01
4.077500440157211692e+00,9.320683038369566020e+00
4.082500440871750236e+00,7.959727497973290156e+00
4.087500441586291444e+00,7.037501028396150105e+00
4.092500442300830876e+00,6.567497087679953438e+00
4.097500443015369420e+00,6.412452284352752940e+00
4.102500443729910629e+00,6.294295107980815374e+00
4.107500444444450061e+00,6.175096856984851001e+00
4.112500445158989493e+00,6.595786238331015738e+00
4.117500445873529813e+00,7.583589553158617491e+00
4.122500446588069245e+00,9.121482601157822501e+00
4.127500447302608677e+00,1.081322974314866769e+01
4.132500448017148997e+00,1.245583263162927778e+01
4.137500448731688429e+00,1.411448138272976394e+01
4.142500449446227861e+00,1.546001795519617872e+01
4.147500450160768182e+00,1.644526671687458474e+01
4.152500450875307614e+00,1.714426784322489539e+01
4.157500451589847934e+00,1.730922311817903392e+01
4.162500452304387366e+00,1.698933138343500104e+01
4.167500453018926798e+00,1.639489376314219271e+01
4.172500453733467118e+00,1.557565839053779655e+01
4.177500454448006550e+00,1.504923837677165466e+01
4.182500455162545983e+00,1.500069677191726214e+01
4.187500455877086303e+00,1.542054705332571984e+01
4.192500456591625735e+00,1.667405854562059631e+01
4.197500457306165167e+00,1.902939362780136889e+01
4.202500458020705487e+00,2.262904328018976230e+01
4.207500458735244919e+00,2.775172893996955281e+01
4.212500459449784351e+00,3.452001358524125862e+01
4.217500460164324672e+00,4.406827048509308042e+01
4.222500460878864104e+00,5.667900522115365902e+01
4.227500461593404424e+00,7.213081711344329960e+01
4.232500462307943856e+00,9.003867021653564962e+01
4.237500463022484176e+00,1.107941399016580135e+02
4.242500463737023608e+00,1.374326003567570638e+02
4.247500464451563040e+00,1.743758088150839285e+02
4.252500465166103361e+00,2.113175256724466635e+02
4.257500465880642793e+00,2.176390418310267592e+02
4.262500466595182225e+00,1.964600209846020675e+02
4.267500467309722545e+00,1.477941087494700696e+02
4.272500468024261977e+00,8.749601518404455192e+01
4.277500468738801409e+00,4.802311146860756708e+01
4.282500469453341729e+00,2.966397604795156440e+01
4.287500470167881161e+00,2.092981308847333821e+01
4.292500470882420593e+00,1.580179744894110172e+01
4.297500471596961802e+00,1.314669357704053709e+01
4.302500472311500346e+00,1.189608524576578930e+01
4.307500473026040666e+00,1.185805157887136829e+01
4.312500473740580986e+00,1.246506133804285810e+01
4.317500474455119530e+00,1.286271804014529607e+01
4.322500475169659850e+00,1.358306928345541564e+01
4.327500475884200171e+00,1.424107891569042295e+01
4.332500476598738715e+00,1.435738094031745504e+01
4.337500477313279035e+00,1.377325754395724289e+01
4.342500478027819355e+00,1.241632513159754581e+01
4.347500478742357899e+00,1.040862758837170077e+01
4.352500479456899107e+00,8.068680957350466088e+00
4.357500480171438539e+00,5.882115529443240121e+00
4.362500480885977083e+00,4.285184144236495740e+00
4.367500481600518292e+00,3.166532209581873758e+00
4.372500482315056836e+00,2.537455270011946595e+00
4.377500483029597156e+00,2.237526448202231677e+00
4.382500483744137476e+00,2.181270029011443512e+00
4.387500484458676020e+00,2.226966391177370497e+00
4.392500485173216340e+00,2.123459868699512754e+00
4.397500485887756660e+00,2.107052061440583657e+00
4.402500486602295204e+00,2.081189335180965827e+00
4.407500487316835525e+00,2.340095634171802885e+00
4.412500488031375845e+00,2.534440205798318857e+00
4.417500488745914389e+00,2.467968460007455178e+00
4.422500489460455597e+00,2.497801041626416918e+00
4.427500490174995029e+00,2.208109367523945821e+00
4.432500490889533573e+00,1.695607570022161781e+00
4.437500491604074782e+00,1.262972907103801390e+00
4.442500492318614214e+00,9.782634870734909782e-01
4.447500493033153646e+00,6.665564522017461968e-01
4.452500493747693966e+00,3.412834279949379379e-01
4.457500494462233398e+00,7.999346269764373574e-02
4.462500495176772830e+00,0.000000000000000000e+00
4.467500495891313150e+00,3.281135451018144522e-01
4.472500496605852582e+00,8.195564596842359606e-01
4.477500497320392014e+00,1.187833567427219350e+00
4.482500498034932335e+00,1.511317847417217308e+00
4.487500498749471767e+00,2.046025092399190726e+00
4.492500499464012087e+00,2.629727678354925047e+00
4.497500500178551519e+00,3.158913793066744802e+00
4.502500500893091839e+00,3.705181479133443645e+00
4.507500501607631271e+00,4.130930772688941488e+00
4.512500502322170703e+00,4.456917414386680321e+00
4.517500503036711024e+00,4.548684734211406067e+00
4.522500503751250456e+00,4.445115897618904910e+00
4.527500504465789888e+00,4.196232977847557777e+00
4.532500505180330208e+00,3.829780207916655854e+00
4.537500505894869640e+00,3.433865582233863734e+00
4.542500506609409072e+00,3.483621012890750990e+00
4.547500507323949392e+00,3.876846860956447927e+00
4.552500508038488825e+00,4.486349583006699504e+00
4.557500508753028257e+00,5.151122151089566614e+00
4.562500509467568577e+00,6.089063779331695514e+00
4.567500510182108009e+00,7.222327824371973293e+00
4.572500510896648329e+00,8.744948738530069932e+00
4.577500511611187761e+00,1.023468899367708218e+01
4.582500512325727193e+00,1.196239577073117744e+01
4.587500513040267514e+00,1.424374656516840787e+01
4.592500513754806946e+00,1.757428947026812693e+01
4.597500514469346378e+00,2.305296612637346243e+01
4.602500515183886698e+00,3.062396352757286877e+01
4.607500515898426130e+00,3.978838394361690689e+01
4.612500516612965562e+00,4.966631767386445517e+01
4.617500517327505882e+00,5.943342751998073936e+01
4.622500518042045314e+00,6.727117461605490689e+01
4.627500518756584746e+00,7.262722492278123809e+01
4.632500519471125955e+00,7.382253540913927736e+01
4.637500520185664499e+00,7.000682890594890750e+01
4.642500520900204819e+00,6.183992955512906065e+01
4.647500521614745139e+00,5.090329235075171255e+01
4.652500522329283683e+00,3.928334664494070694e+01
4.657500523043824003e+00,2.983394731978432901e+01
4.662500523758364324e+00,2.358555447487452739e+01
4.667500524472902868e+00,1.951626003867318104e+01
4.672500525187443188e+00,1.702706853026768385e+01
4.677500525901983508e+00,1.562719979378437074e+01
4.682500526616522052e+00,1.524204187928489773e+01
4.687500527331063260e+00,1.562614542756932678e+01
4.692500528045602692e+00,1.665698587724352819e+01
4.697500528760141236e+00,1.822201790811584488e+01
4.702500529474682445e+00,2.019093496271744925e+01
4.707500530189221877e+00,2.244035796704201857e+01
4.712500530903761309e+00,2.546562121925319389e+01
4.717500531618301629e+00,2.915872649128272087e+01
4.722500532332841061e+00,3.433644971831915882e+01
4.727500533047380493e+00,4.105757122345289645e+01
4.732500533761920813e+00,4.874860813958576955e+01
4.737500534476460246e+00,5.713411226102800811e+01
4.742500535190999678e+00,6.607163098103376342e+01
4.747500535905539998e+00,7.511286451839680467e+01
4.752500536620079430e+00,8.302847670850178474e+01
4.757500537334618862e+00,8.700356009124692491e+01
4.762500538049159182e+00,8.352093669232965567e+01
4.767500538763698614e+00,7.419682086507549457e+01
4.772500539478238046e+00,6.074911152680022042e+01
4.777500540192778367e+00,4.604188678774903565e+01
4.782500540907317799e+00,3.622993520112930810e+01
4.787500541621858119e+00,3.046383388814376758e+01
4.792500542336397551e+00,2.688585918255324714e+01
4.797500543050936983e+00,2.523368536117885697e+01
4.802500543765477303e+00,2.403511730994864593e+01
4.807500544480016735e+00,2.344308197900824098e+01
4.812500545194556167e+00,2.368643404681472475e+01
4.817500545909096488e+00,2.414493760962153601e+01
4.822500546623636808e+00,2.498061383775916511e+01
4.827500547338175352e+00,2.596751392488545207e+01
4.832500548052715672e+00,2.673643954700082759e+01
4.837500548767255992e+00,2.807972191521309924e+01
4.842500549481794536e+00,2.944035751795581746e+01
4.847500550196334856e+00,3.110817511320556150e+01
4.852500550910875177e+00,3.276561209570036226e+01
4.857500551625414609e+00,3.435481044423431740e+01
4.862500552339954041e+00,3.585453322559465050e+01
4.867500553054494361e+00,3.740885722154308723e+01
4.872500553769033793e+00,3.907613533119024396e+01
4.877500554483574113e+00,4.062834349485240182e+01
4.882500555198113545e+00,4.182116126048674687e+01
4.887500555912652977e+00,4.277486167629854208e+01
4.892500556627193298e+00,4.384937232592585588e+01
4.897500557341732730e+00,4.457771649057747254e+01
4.902500558056272162e+00,4.555444088343642761e+01
4.907500558770812482e+00,4.684708415554723615e+01
4.912500559485352802e+00,4.817641371225045077e+01
4.917500560199891346e+00,4.962852288117863964e+01
4.922500560914431667e+00,5.137495420330071738e+01
4.927500561628971987e+00,5.345382736263525203e+01
4.932500562343510531e+00,5.589129914721712566e+01
4.937500563058050851e+00,5.806270846865481872e+01
4.942500563772590283e+00,6.061692328598553559e+01
4.947500564487130603e+00,6.323897488304601211e+01
4.952500565201670035e+00,6.599939258529622066e+01
4.957500565916209467e+00,6.920472866218915442e+01
4.962500566630749788e+00,7.238489353227544143e+01
4.967500567345289220e+00,7.578870019682358361e+01
4.972500568059828652e+00,7.919315989414235446e+01
4.977500568774368972e+00,8.282261051757558334e+01
4.982500569488909292e+00,8.627208697685614425e+01
4.987500570203447836e+00,8.854742129578767162e+01
4.992500570917988156e+00,9.056774505367593520e+01
4.997500571632528477e+00,9.255687732480771501e+01
5.002500572347067020e+00,9.460988351636569860e+01
5.007500573061607341e+00,9.695360393290758338e+01
5.012500573776147661e+00,9.908321993849926912e+01
5.017500574490687093e+00,1.006986553239277100e+02
5.022500575205226525e+00,1.020575426153188232e+02
5.027500575919766845e+00,1.030518221952553404e+02
5.032500576634306277e+00,1.041007171563173870e+02
5.037500577348845709e+00,1.052506783694649357e+02
5.042500578063386030e+00,1.069791259391406584e+02
5.047500578777925462e+00,1.088678195646214704e+02
5.052500579492465782e+00,1.099940633740264957e+02
5.057500580207005214e+00,1.104199027016844639e+02
5.062500580921544646e+00,1.103121497229223564e+02
5.067500581636084966e+00,1.093850409247922926e+02
5.072500582350624398e+00,1.080132436978910846e+02
5.077500583065163831e+00,1.064410238168517253e+02
5.082500583779704151e+00,1.055173223446638531e+02
5.087500584494244471e+00,1.052816931326951249e+02
5.092500585208783015e+00,1.053535545296999771e+02
5.097500585923323335e+00,1.053232416279338395e+02
5.102500586637863655e+00,1.053713605112233154e+02
5.107500587352402199e+00,1.053894242413165330e+02
5.112500588066942520e+00,1.053911992934515638e+02
5.117500588781482840e+00,1.049866740622378529e+02
5.122500589496022272e+00,1.041081941155845243e+02
5.127500590210561704e+00,1.031251472533151627e+02
5.132500590925102024e+00,1.027259825501583919e+02
5.137500591639641456e+00,1.030843175335039064e+02
5.142500592354181776e+00,1.042500819822512881e+02
5.147500593068720320e+00,1.061978882881593336e+02
5.152500593783260641e+00,1.093699391707116320e+02
5.157500594497800961e+00,1.142993186927610623e+02
5.162500595212339505e+00,1.225458443113328713e+02
5.167500595926879825e+00,1.356214208815512166e+02
5.172500596641420145e+00,1.542631119457221303e+02
5.177500597355959577e+00,1.770123328485882439e+02
5.182500598070499009e+00,2.023278268115682295e+02
5.187500598785039330e+00,2.272276632237920353e+02
5.192500599499578762e+00,2.482021099565739632e+02
5.197500600214118194e+00,2.655160930802306893e+02
5.202500600928658514e+00,2.765736072644899650e+02
5.207500601643197946e+00,2.781798922921836947e+02
5.212500602357738266e+00,2.647700707545787395e+02
5.217500603072277698e+00,2.360069263717100512e+02
5.222500603786817130e+00,1.991173602912273282e+02
5.227500604501357451e+00,1.566006430415399109e+02
5.232500605215896883e+00,1.190647182427726420e+02
5.237500605930436315e+00,9.374402487241053450e+01
5.242500606644976635e+00,7.766294941375537064e+01
5.247500607359516955e+00,6.731261418602184676e+01
5.252500608074055499e+00,6.014764248107542244e+01
5.257500608788595819e+00,5.488690929587312439e+01
5.262500609503136140e+00,5.093828498482525902e+01
5.267500610217674684e+00,4.811454712504865938e+01
5.272500610932215004e+00,4.560167275271260223e+01
5.277500611646755324e+00,4.321710862672932763e+01
5.282500612361294756e+00,4.049265697095916039e+01
5.287500613075834188e+00,3.766083411680733661e+01
5.292500613790374508e+00,3.471535634308440876e+01
5.297500614504913941e+00,3.198822727836920876e+01
5.302500615219453373e+00,2.961522252016601442e+01
5.307500615933993693e+00,2.776016331656336433e+01
5.312500616648533125e+00,2.636027789437611091e+01
5.317500617363073445e+00,2.508405668377270104e+01
5.322500618077612877e+00,2.385551379290137675e+01
5.327500618792152309e+00,2.252578734970421692e+01
5.332500619506692630e+00,2.119305527341907691e+01
5.337500620221232062e+00,2.022417223748641391e+01
5.342500620935771494e+00,1.950784349769224946e+01
5.347500621650311814e+00,1.867758631796505142e+01
5.352500622364851246e+00,1.782983910125250304e+01
5.357500623079390678e+00,1.711414083289741939e+01
5.362500623793930998e+00,1.667081418612298194e+01
5.367500624508470430e+00,1.590528803181473450e+01
5.372500625223009862e+00,1.502542043658365856e+01
5.377500625937550183e+00,1.444576502020430553e+01
5.382500626652089615e+00,1.394513321149077001e+01
5.387500627366629935e+00,1.325918458034351488e+01
5.392500628081169367e+00,1.238935628112483300e+01
5.397500628795708799e+00,1.129338429290919521e+01
5.402500629510249119e+00,1.003645698395223462e+01
5.407500630224788551e+00,8.624772240611946472e+00
5.412500630939327984e+00,7.418714957600400339e+00
5.417500631653868304e+00,6.964827252840848359e+00
5.422500632368408624e+00,6.763234004594323778e+00
5.427500633082947168e+00,6.673435087802317867e+00
5.432500633797487488e+00,6.541777297930082113e+00
5.437500634512027808e+00,6.201698491607032793e+00
5.442500635226567240e+00,5.758029344454712373e+00
5.447500635941106673e+00,5.397479190944920902e+00
5.452500636655646993e+00,5.133875282227563730e+00
5.457500637370186425e+00,5.068599797863953427e+00
5.462500638084725857e+00,5.164637697404600658e+00
5.467500638799266177e+00,5.933008605168879512e+00
5.472500639513805609e+00,6.835171595416625223e+00
5.477500640228345929e+00,8.229283737283822120e+00
5.482500640942885362e+00,1.043135732135999660e+01
5.487500641657424794e+00,1.370274765267129169e+01
5.492500642371965114e+00,1.761572311905388233e+01
5.497500643086504546e+00,2.207787925366892523e+01
