1.502500072169232093e+00,1.024939589951992502e+01
1.507500072883772191e+00,1.208738518599585632e+01
1.512500073598311845e+00,1.363626300000242964e+01
1.517500074312851721e+00,1.527268585829995118e+01
1.522500075027391375e+00,1.681154100723028932e+01
1.527500075741931251e+00,1.789919596213263731e+01
1.532500076456470905e+00,1.905555175715477390e+01
1.537500077171010782e+00,1.994958618476857737e+01
1.542500077885550436e+00,2.043197711289332119e+01
1.547500078600090090e+00,2.044251217846488089e+01
1.552500079314630188e+00,2.047529877348023319e+01
1.557500080029169620e+00,2.126360904032304688e+01
1.562500080743709496e+00,2.239447340177332535e+01
1.567500081458249372e+00,2.321947770383570742e+01
1.572500082172789027e+00,2.327138921553836326e+01
1.577500082887328903e+00,2.285494644664805719e+01
1.582500083601868335e+00,2.266343631847047391e+01
1.587500084316408433e+00,2.258023837524245891e+01
1.592500085030948087e+00,2.273073520604810938e+01
1.597500085745487741e+00,2.286893966320707250e+01
1.602500086460027617e+00,2.282189185565670186e+01
1.607500087174567494e+00,2.310056004819807640e+01
1.612500087889107148e+00,2.284924253692560114e+01
1.617500088603646802e+00,2.250209232702155759e+01
1.622500089318186678e+00,2.259634957385952703e+01
1.627500090032726332e+00,2.243997465851930428e+01
1.632500090747266430e+00,2.237687647779881672e+01
1.637500091461805862e+00,2.198603965966742635e+01
1.642500092176345738e+00,2.149821159284095984e+01
1.647500092890885615e+00,2.097818393845301443e+01
1.652500093605425047e+00,2.003002336015669016e+01
1.657500094319965145e+00,1.908997925587124200e+01
1.662500095034504799e+00,1.805868592281393603e+01
1.667500095749044675e+00,1.655757126520381917e+01
1.672500096463584329e+00,1.547615905636121170e+01
1.677500097178123983e+00,1.498232286067565155e+01
1.682500097892663860e+00,1.484867154709110082e+01
1.687500098607203736e+00,1.474509080817739459e+01
1.692500099321743390e+00,1.407016407346145570e+01
1.697500100036283044e+00,1.355111759241964364e+01
1.702500100750823142e+00,1.392894007775811360e+01
1.707500101465362574e+00,1.439524185039260828e+01
1.712500102179902450e+00,1.404013082988711858e+01
1.717500102894442326e+00,1.294611513597504882e+01
1.722500103608981981e+00,1.191091193984397023e+01
1.727500104323521857e+00,1.128942745776771517e+01
1.732500105038061289e+00,1.110258264763234592e+01
1.737500105752601387e+00,1.106902098531998035e+01
1.742500106467141041e+00,1.086774275454365579e+01
1.747500107181680695e+00,1.099445881889010934e+01
1.752500107896220571e+00,1.111516729404354464e+01
1.757500108610760448e+00,1.077342895027209124e+01
1.762500109325300102e+00,1.020720072018002611e+01
1.767500110039839756e+00,1.006377101290399878e+01
1.772500110754379632e+00,1.002994771366195437e+01
1.777500111468919286e+00,1.016503548975140347e+01
1.782500112183459384e+00,1.026576500066005337e+01
1.787500112897998816e+00,1.043791766463209569e+01
1.792500113612538692e+00,1.074763182154157448e+01
1.797500114327078569e+00,1.086126480379232362e+01
1.802500115041618223e+00,1.070396228243504311e+01
1.807500115756158099e+00,1.032947028889992680e+01
1.812500116470697753e+00,9.938293183824953303e+00
1.817500117185237629e+00,1.029520465306899268e+01
1.822500117899777283e+00,1.100491300043870524e+01
1.827500118614316937e+00,1.155139831525917771e+01
1.832500119328856814e+00,1.199981677846369621e+01
1.837500120043396690e+00,1.257703656032964545e+01
1.842500120757936344e+00,1.288483363017576266e+01
1.847500121472475998e+00,1.303978434325927083e+01
1.852500122187016096e+00,1.330333136737448285e+01
1.857500122901555528e+00,1.370312158196634300e+01
1.862500123616095404e+00,1.411595286383027315e+01
1.867500124330635058e+00,1.458646916368832080e+01
1.872500125045175157e+00,1.508994737951280740e+01
1.877500125759714811e+00,1.579059814573366793e+01
1.882500126474254243e+00,1.672464079224232592e+01
1.887500127188794341e+00,1.803693665288034254e+01
1.892500127903333995e+00,2.066110381911681770e+01
1.897500128617873427e+00,2.427486993071789811e+01
1.902500129332413525e+00,2.999501847215577754e+01
1.907500130046953402e+00,3.819898301812150976e+01
1.912500130761493056e+00,4.671231672306561222e+01
1.917500131476032710e+00,5.240283905672015408e+01
1.922500132190572586e+00,5.284363019576272791e+01
1.927500132905112240e+00,4.850892336458940690e+01
1.932500133619652338e+00,4.176436973457970225e+01
1.937500134334191770e+00,3.591015976856641601e+01
1.942500135048731869e+00,3.239321194802050741e+01
1.947500135763271523e+00,3.011939812122557214e+01
1.952500136477810955e+00,2.862254985721784806e+01
1.957500137192351053e+00,2.789514692853316546e+01
1.962500137906890707e+00,2.767344304971976499e+01
1.967500138621430139e+00,2.809844610794624487e+01
1.972500139335970237e+00,2.880390034664270615e+01
1.977500140050510113e+00,2.934850683030202845e+01
1.982500140765049768e+00,2.948441710255281123e+01
1.987500141479589422e+00,2.920035452969364087e+01
1.992500142194129298e+00,2.873208183554658035e+01
1.997500142908669396e+00,2.855574827490130474e+01
2.002500143623208384e+00,2.843064476585919920e+01
2.007500144337748704e+00,2.846332132678747939e+01
2.012500145052288580e+00,2.872816203272185476e+01
2.017500145766828012e+00,2.847896338966285157e+01
2.022500146481367889e+00,2.792078492559193137e+01
2.027500147195907765e+00,2.720259445914513208e+01
2.032500147910447641e+00,2.647064334868434798e+01
2.037500148624987073e+00,2.618465912410641749e+01
2.042500149339526949e+00,2.624290652678519109e+01
2.047500150054066825e+00,2.593519044397379503e+01
2.052500150768606257e+00,2.523167427282612607e+01
2.057500151483146134e+00,2.403297147771058917e+01
2.062500152197686010e+00,2.251230868065795221e+01
2.067500152912225886e+00,2.124739212088769591e+01
2.072500153626765762e+00,2.015128534473581112e+01
2.077500154341305194e+00,1.942623611427143260e+01
2.082500155055845070e+00,1.885423427288122866e+01
2.087500155770384946e+00,1.842219485493313869e+01
2.092500156484924378e+00,1.806844856842832314e+01
2.097500157199464255e+00,1.733835092993615490e+01
2.102500157914004575e+00,1.637155643853401443e+01
2.107500158628544007e+00,1.560212233953427585e+01
2.112500159343083439e+00,1.484581941940388106e+01
2.117500160057623759e+00,1.429686662875457159e+01
2.122500160772163191e+00,1.370267473848161899e+01
2.127500161486702623e+00,1.292491201733292883e+01
2.132500162201242500e+00,1.227586898169187180e+01
2.137500162915782820e+00,1.169320205155776193e+01
2.142500163630322252e+00,1.080643135686602818e+01
2.147500164344861684e+00,9.722402166806261903e+00
2.152500165059402004e+00,8.755753643307514267e+00
2.157500165773941436e+00,8.100244528071300465e+00
2.162500166488480868e+00,7.530993136196229898e+00
2.167500167203021189e+00,7.012143375146251856e+00
2.172500167917561065e+00,6.530727052735301186e+00
2.177500168632100497e+00,6.334639954598742406e+00
2.182500169346640373e+00,6.084771974353031965e+00
2.187500170061180249e+00,5.611141149962634245e+00
2.192500170775719681e+00,5.149069203968849706e+00
2.197500171490259557e+00,4.561593655942601799e+00
2.202500172204799433e+00,4.243367972004023159e+00
2.207500172919339310e+00,4.043452095160489534e+00
2.212500173633879186e+00,4.026451364275942524e+00
2.217500174348418618e+00,4.305676917374682944e+00
2.222500175062958494e+00,4.865228214048102018e+00
2.227500175777497926e+00,5.981166133991678180e+00
2.232500176492037802e+00,7.554703897772981236e+00
2.237500177206577678e+00,9.565209999277897168e+00
2.242500177921117555e+00,1.286610664593428055e+01
2.247500178635657431e+00,2.064528846257064743e+01
2.252500179350196863e+00,3.726694988664439734e+01
2.257500180064736739e+00,6.358063668453087303e+01
2.262500180779277059e+00,8.061750449902490345e+01
2.267500181493816047e+00,8.158610742610682109e+01
2.272500182208355923e+00,7.132884943347204398e+01
2.277500182922896244e+00,4.591094310324461958e+01
2.282500183637435676e+00,2.575300851137808422e+01
2.287500184351975108e+00,1.506100487069676319e+01
2.292500185066515428e+00,9.948453433669044443e+00
2.297500185781055304e+00,7.192266352182912215e+00
2.302500186495594292e+00,5.342670996273739092e+00
2.307500187210134612e+00,4.049412348994565036e+00
2.312500187924674488e+00,2.998551104380965171e+00
2.317500188639213921e+00,2.412921433356416401e+00
2.322500189353753797e+00,1.824561405857650698e+00
2.327500190068293673e+00,1.309698344572723272e+00
2.332500190782833549e+00,1.181345262636114057e+00
2.337500191497372981e+00,1.137799400904441427e+00
2.342500192211912857e+00,1.090278948799721093e+00
2.347500192926452733e+00,8.110248530160220071e-01
2.352500193640992165e+00,4.514282609652582323e-01
2.357500194355532042e+00,3.437061068217417414e-02
2.362500195070071918e+00,0.000000000000000000e+00
2.367500195784611794e+00,3.265502803103004226e-01
2.372500196499151670e+00,1.196478753813437379e+00
2.377500197213691102e+00,2.038397327776749535e+00
2.382500197928230978e+00,2.255527106267834370e+00
2.387500198642770854e+00,2.137685696707592342e+00
2.392500199357310287e+00,2.113606547650817902e+00
2.397500200071850163e+00,2.447350083418086797e+00
2.402500200786390039e+00,2.873466059407576267e+00
2.407500201500929915e+00,2.862313388089489763e+00
2.412500202215469347e+00,2.650333578257061617e+00
2.417500202930009223e+00,2.626006547304882588e+00
2.422500203644549099e+00,2.980607458875113025e+00
2.427500204359088531e+00,3.704300474545846100e+00
2.432500205073628408e+00,4.333209067998268438e+00
2.437500205788168728e+00,4.537398204397106838e+00
2.442500206502708160e+00,4.627099927955669045e+00
2.447500207217247592e+00,4.761453597916840863e+00
2.452500207931787912e+00,4.883747589358335972e+00
2.457500208646327344e+00,5.167799909995039798e+00
2.462500209360866776e+00,5.707106150946572143e+00
2.467500210075407097e+00,6.019935923812965939e+00
2.472500210789946973e+00,6.456742530154599535e+00
2.477500211504486405e+00,6.735899046969905157e+00
2.482500212219026281e+00,7.324710291059886913e+00
2.487500212933566157e+00,8.063100564626324740e+00
2.492500213648105589e+00,8.879433969210708710e+00
2.497500214362645465e+00,9.557360110241631901e+00
2.502500215077185342e+00,9.970829967580186803e+00
2.507500215791725218e+00,1.061559003753325214e+01
2.512500216506264650e+00,1.153346822289705642e+01
2.517500217220804526e+00,1.244372149056306398e+01
2.522500217935344402e+00,1.338195188848067119e+01
2.527500218649883834e+00,1.396289341221643099e+01
2.532500219364423710e+00,1.424180116641741733e+01
2.537500220078963586e+00,1.478390937391537818e+01
2.542500220793503463e+00,1.563275413091031396e+01
2.547500221508043339e+00,1.686177863284189016e+01
2.552500222222582771e+00,1.808196257016743402e+01
2.557500222937122647e+00,1.935414512764140227e+01
2.562500223651662967e+00,2.039477449725194447e+01
2.567500224366201955e+00,2.159647672708092614e+01
2.572500225080741831e+00,2.276404815413462757e+01
2.577500225795282152e+00,2.365867537622222017e+01
2.582500226509821584e+00,2.469483466718065756e+01
2.587500227224361016e+00,2.633198509325825398e+01
2.592500227938901336e+00,2.824720645370229022e+01
2.597500228653441212e+00,3.057531158656979642e+01
2.602500229367980644e+00,3.348718499288321482e+01
2.607500230082520076e+00,3.692199108968037535e+01
2.612500230797060397e+00,4.084904554898918150e+01
2.617500231511599829e+00,4.450911778913342687e+01
2.622500232226139261e+00,4.669272077071428839e+01
2.627500232940679581e+00,4.728347647617295024e+01
2.632500233655219457e+00,4.663815131121674540e+01
2.637500234369758889e+00,4.575654746326426903e+01
2.642500235084298765e+00,4.537906759972349846e+01
2.647500235798838641e+00,4.553984597250700972e+01
2.652500236513378074e+00,4.607205847761582618e+01
2.657500237227917950e+00,4.699543486314803431e+01
2.662500237942457826e+00,4.806353045878154262e+01
2.667500238656997702e+00,4.956978696774569926e+01
2.672500239371537578e+00,5.122305126659500729e+01
2.677500240086077010e+00,5.313814547450277814e+01
2.682500240800616886e+00,5.508269312606120138e+01
2.687500241515156763e+00,5.674109622297572741e+01
2.692500242229696195e+00,5.799132966856313942e+01
2.697500242944236071e+00,5.932678575106723429e+01
2.702500243658775947e+00,6.149207736719830564e+01
2.707500244373315823e+00,6.441394622613324827e+01
2.712500245087855255e+00,6.821847476444116865e+01
2.717500245802395131e+00,7.310739840279842383e+01
2.722500246516935007e+00,8.005897224605251949e+01
2.727500247231474440e+00,9.156408558601145842e+01
2.732500247946014316e+00,1.087611495975831417e+02
2.737500248660554636e+00,1.295099193610773796e+02
2.742500249375094068e+00,1.447424765290307391e+02
2.747500250089633500e+00,1.489465362117718428e+02
2.752500250804173820e+00,1.431284291559479129e+02
2.757500251518713252e+00,1.276412572628845510e+02
2.762500252233252684e+00,1.104492063335018202e+02
2.767500252947793005e+00,9.704163908665719873e+01
2.772500253662332881e+00,8.782689398802870073e+01
2.777500254376872313e+00,8.218291391297344717e+01
2.782500255091412189e+00,7.854760869609737028e+01
2.787500255805952065e+00,7.632071060073820945e+01
2.792500256520491497e+00,7.477457143883162871e+01
2.797500257235031373e+00,7.365038449545761523e+01
2.802500257949571250e+00,7.266560030103374856e+01
2.807500258664111126e+00,7.181571496209693350e+01
2.812500259378650558e+00,7.122381850184103769e+01
2.817500260093190434e+00,7.089395179439878802e+01
2.822500260807730310e+00,7.091108825497508406e+01
2.827500261522270186e+00,7.098126445575417165e+01
2.832500262236809618e+00,7.104449516562777944e+01
2.837500262951349495e+00,7.079991983522933197e+01
2.842500263665889371e+00,7.053282896477355735e+01
2.847500264380429247e+00,7.082108500313808008e+01
2.852500265094968679e+00,7.137545437975256846e+01
2.857500265809508555e+00,7.184585140171412831e+01
2.862500266524048875e+00,7.223985632081877384e+01
2.867500267238588307e+00,7.294542041230408813e+01
2.872500267953127739e+00,7.419909717663438187e+01
2.877500268667668060e+00,7.559104722291687040e+01
2.882500269382207492e+00,7.680356366012750868e+01
2.887500270096746924e+00,7.731196931450040211e+01
2.892500270811286800e+00,7.684225833167624842e+01
2.897500271525826676e+00,7.566992430228452804e+01
2.902500272240366552e+00,7.403695245001716785e+01
2.907500272954905984e+00,7.221679155602635092e+01
2.912500273669446305e+00,7.058918306104919793e+01
2.917500274383985737e+00,6.893779900541846928e+01
2.922500275098525169e+00,6.733073519367695781e+01
2.927500275813065489e+00,6.582021822637233299e+01
2.932500276527604921e+00,6.429236746348885845e+01
2.937500277242144797e+00,6.309521626521620874e+01
2.942500277956684673e+00,6.196458479521282925e+01
2.947500278671224549e+00,6.045498822425525987e+01
2.952500279385763982e+00,5.860476734599075144e+01
2.957500280100304302e+00,5.661904145831022106e+01
2.962500280814843734e+00,5.455049449666842065e+01
2.967500281529383166e+00,5.265502689005603543e+01
2.972500282243923486e+00,5.082629535641945040e+01
2.977500282958462918e+00,4.921030640901261677e+01
2.982500283673002794e+00,4.749267831977601872e+01
2.987500284387542226e+00,4.570195532880387645e+01
2.992500285102082547e+00,4.413004831865038113e+01
2.997500285816621979e+00,4.280757661167780270e+01
3.002500286531161411e+00,4.154537187677618704e+01
3.007500287245701731e+00,4.048617490716992506e+01
3.012500287960241163e+00,3.930934753493983180e+01
3.017500288674781039e+00,3.787586164515067821e+01
3.022500289389320915e+00,3.661694053372207236e+01
3.027500290103860792e+00,3.571939215982860105e+01
3.032500290818400224e+00,3.516949342368388898e+01
3.037500291532940100e+00,3.477484075291619092e+01
3.042500292247479976e+00,3.404423291550006070e+01
3.047500292962019408e+00,3.308885510221705317e+01
3.052500293676559728e+00,3.232656359504835564e+01
3.057500294391099160e+00,3.192988381446934909e+01
3.062500295105639037e+00,3.135732135502274787e+01
3.067500295820178913e+00,3.061071672205827099e+01
3.072500296534718789e+00,2.997932492198430054e+01
3.077500297249258221e+00,2.911510232790561759e+01
3.082500297963798097e+00,2.853215736361835297e+01
3.087500298678337973e+00,2.792089845322357178e+01
3.092500299392877405e+00,2.730980770316131157e+01
3.097500300107417281e+00,2.683414817798842478e+01
3.102500300821957158e+00,2.662002762146772739e+01
3.107500301536497034e+00,2.657300319327589477e+01
3.112500302251036466e+00,2.663366618617868653e+01
3.117500302965576342e+00,2.647017742679457797e+01
3.122500303680116218e+00,2.603124579159009500e+01
3.127500304394655650e+00,2.552003567794935179e+01
3.132500305109195970e+00,2.518206983656875764e+01
3.137500305823735403e+00,2.513863391283160809e+01
3.142500306538275279e+00,2.502898836122716375e+01
3.147500307252815155e+00,2.499309549648438633e+01
3.152500307967354587e+00,2.501857383962482118e+01
3.157500308681894463e+00,2.449251696596439842e+01
3.162500309396434339e+00,2.374076962850318750e+01
3.167500310110974215e+00,2.317102468209344579e+01
3.172500310825513647e+00,2.288296102322891556e+01
3.177500311540053524e+00,2.289141863920571041e+01
3.182500312254593400e+00,2.304760222173405282e+01
3.187500312969132832e+00,2.300706822781165783e+01
3.192500313683672708e+00,2.278056716520410419e+01
3.197500314398212584e+00,2.260873841698440856e+01
3.202500315112752460e+00,2.255094691177259847e+01
3.207500315827291892e+00,2.259920524319068136e+01
3.212500316541832213e+00,2.264951766431596525e+01
3.217500317256371645e+00,2.257792989267710482e+01
3.222500317970911521e+00,2.268684869063810083e+01
3.227500318685451397e+00,2.284285924851457139e+01
3.232500319399990829e+00,2.291968783135808962e+01
3.237500320114530705e+00,2.287358019722273639e+01
3.242500320829070581e+00,2.282890340410068575e+01
3.247500321543610458e+00,2.290236456021449385e+01
3.252500322258149890e+00,2.319831111727495454e+01
3.257500322972690210e+00,2.367576578287747679e+01
3.262500323687229642e+00,2.430708740945811996e+01
3.267500324401769074e+00,2.445446635590360529e+01
3.272500325116308950e+00,2.455974382376695075e+01
3.277500325830848826e+00,2.459079247277929881e+01
3.282500326545388702e+00,2.479722320823231030e+01
3.287500327259928135e+00,2.528918156796891026e+01
3.292500327974468455e+00,2.571978180468335040e+01
3.297500328689007887e+00,2.588657783345291818e+01
3.302500329403547319e+00,2.561669506794015660e+01
3.307500330118087639e+00,2.508341977612252549e+01
3.312500330832627071e+00,2.468895054539615330e+01
3.317500331547166947e+00,2.440650033361367832e+01
3.322500332261706824e+00,2.456044783652612296e+01
3.327500332976246700e+00,2.490116658959840379e+01
3.332500333690786132e+00,2.513996759521199920e+01
3.337500334405326008e+00,2.547598530924113902e+01
3.342500335119865884e+00,2.565474087371995893e+01
3.347500335834405316e+00,2.614666994911732445e+01
3.352500336548945636e+00,2.672070059543790421e+01
3.357500337263485068e+00,2.711762363378812779e+01
3.362500337978024945e+00,2.749992174817714385e+01
3.367500338692564377e+00,2.786708320645351478e+01
3.372500339407104697e+00,2.817025640155418387e+01
3.377500340121644129e+00,2.854247446110980491e+01
3.382500340836183561e+00,2.900559494493950297e+01
3.387500341550723881e+00,2.946007645660495200e+01
3.392500342265263313e+00,2.966462341902604294e+01
3.397500342979803190e+00,3.003794388720302777e+01
3.402500343694343066e+00,3.077221390390667466e+01
3.407500344408882942e+00,3.152689463856785324e+01
3.412500345123422374e+00,3.226030587382319936e+01
3.417500345837962250e+00,3.284147292955782405e+01
3.422500346552502126e+00,3.307423554983705571e+01
3.427500347267041558e+00,3.308097593046124985e+01
3.432500347981581879e+00,3.312680695159713196e+01
3.437500348696121311e+00,3.319842959985993502e+01
3.442500349410661187e+00,3.317533658180070688e+01
3.447500350125201063e+00,3.322950104481304834e+01
3.452500350839740495e+00,3.371398741717877101e+01
3.457500351554280371e+00,3.424122899615917959e+01
3.462500352268820247e+00,3.449033995991231905e+01
3.467500352983360123e+00,3.454521961573658473e+01
3.472500353697899556e+00,3.457915323034416133e+01
3.477500354412439432e+00,3.490681398317946105e+01
3.482500355126979308e+00,3.547440578887659512e+01
3.487500355841518740e+00,3.627573995760576508e+01
3.492500356556058616e+00,3.733279549799618735e+01
3.497500357270598492e+00,3.847236096302611941e+01
3.502500357985138368e+00,3.950331106153640803e+01
3.507500358699677800e+00,4.017388204903903670e+01
3.512500359414218121e+00,4.014280209899322927e+01
3.517500360128757553e+00,3.973435722095484834e+01
3.522500360843297429e+00,3.929276137794249735e+01
3.527500361557837305e+00,3.896654979716259959e+01
3.532500362272376737e+00,3.851177110885714683e+01
3.537500362986916613e+00,3.766219608671212882e+01
3.542500363701456489e+00,3.660285890779687179e+01
3.547500364415996366e+00,3.547732033632911453e+01
3.552500365130535798e+00,3.475158984298565201e+01
3.557500365845075674e+00,3.426820275350888778e+01
3.562500366559615550e+00,3.387414993637372618e+01
3.567500367274154982e+00,3.366611706076662358e+01
3.572500367988694858e+00,3.365262448932730877e+01
3.577500368703234734e+00,3.364529314745345800e+01
3.582500369417774611e+00,3.353881278518059617e+01
3.587500370132314043e+00,3.343047933085807699e+01
3.592500370846854363e+00,3.325010822138693811e+01
3.597500371561393795e+00,3.296340354300201625e+01
3.602500372275933227e+00,3.261675783611588031e+01
3.607500372990473547e+00,3.232229848219316182e+01
3.612500373705012979e+00,3.211738477421641846e+01
3.617500374419552855e+00,3.182434912777654290e+01
3.622500375134092732e+00,3.131880762809879570e+01
3.627500375848632608e+00,3.095907287198991753e+01
3.632500376563172040e+00,3.089700601876819519e+01
3.637500377277712360e+00,3.058051923181693610e+01
3.642500377992251792e+00,3.013312279787197667e+01
3.647500378706791224e+00,2.960175837911970120e+01
3.652500379421331100e+00,2.919749115201267387e+01
3.657500380135870977e+00,2.905246781522561150e+01
3.662500380850410853e+00,2.875452352338993478e+01
3.667500381564950285e+00,2.832444629153138749e+01
3.672500382279490605e+00,2.800720624325663266e+01
3.677500382994030037e+00,2.782374394096910919e+01
3.682500383708569469e+00,2.759700188014659261e+01
3.687500384423109789e+00,2.734276311252477853e+01
3.692500385137649221e+00,2.697112829701205783e+01
3.697500385852189098e+00,2.626832722326230396e+01
3.702500386566728974e+00,2.553050787430612445e+01
3.707500387281268850e+00,2.512635849699597657e+01
3.712500387995808282e+00,2.509369573690145216e+01
3.717500388710348158e+00,2.585085990211155149e+01
3.722500389424888034e+00,2.741519030515911481e+01
3.727500390139427910e+00,2.936997472603928827e+01
3.732500390853967343e+00,3.140509882639838679e+01
3.737500391568507219e+00,3.289706323950281330e+01
3.742500392283047095e+00,3.346495280864462529e+01
3.747500392997586527e+00,3.267047931187471477e+01
3.752500393712126403e+00,3.111575978243706686e+01
3.757500394426666279e+00,2.892116074717154106e+01
3.762500395141205711e+00,2.667756873444716348e+01
3.767500395855746476e+00,2.466007435631252065e+01
3.772500396570285464e+00,2.287585438869228938e+01
3.777500397284825340e+00,2.180089662502069814e+01
3.782500397999365660e+00,2.098101305995180610e+01
3.787500398713904648e+00,2.027979521174086130e+01
3.792500399428444524e+00,1.986561363407770386e+01
3.797500400142984844e+00,1.964536425409141884e+01
3.802500400857523832e+00,1.965454405605714783e+01
3.807500401572063708e+00,2.006512461666426361e+01
3.812500402286604029e+00,2.093204258364335146e+01
3.817500403001143017e+00,2.163356832822006481e+01
3.822500403715683781e+00,2.236254740030301491e+01
3.827500404430223213e+00,2.283416420046739859e+01
3.832500405144762201e+00,2.274990072029669363e+01
3.837500405859302965e+00,2.236147086866225209e+01
3.842500406573842398e+00,2.162694840151624476e+01
3.847500407288382274e+00,2.097645295715301472e+01
3.852500408002922150e+00,2.023219400162679449e+01
3.857500408717461138e+00,1.918827429565163811e+01
3.862500409432001458e+00,1.810171772673555779e+01
3.867500410146541334e+00,1.686764020772039885e+01
3.872500410861080322e+00,1.575569987219517998e+01
3.877500411575620642e+00,1.502935976990903555e+01
3.882500412290160519e+00,1.439455730046501003e+01
3.887500413004699507e+00,1.397464928177811316e+01
3.892500413719240715e+00,1.355089046579843171e+01
3.897500414433779703e+00,1.322133856790549089e+01
3.902500415148318691e+00,1.291916481388000193e+01
3.907500415862859899e+00,1.285363294390560895e+01
3.912500416577398887e+00,1.296520785524256780e+01
3.917500417291938763e+00,1.293910540700977663e+01
3.922500418006479084e+00,1.291107244957470357e+01
3.927500418721018072e+00,1.296610508636626946e+01
3.932500419435557948e+00,1.311650653529386545e+01
3.937500420150097824e+00,1.302851066399637148e+01
3.942500420864637256e+00,1.275519214618253727e+01
3.947500421579177132e+00,1.229090982109596553e+01
3.952500422293717008e+00,1.185353325610520869e+01
3.957500423008256440e+00,1.141010802999545604e+01
3.962500423722797205e+00,1.114334743227499303e+01
3.967500424437336193e+00,1.094934364490410417e+01
3.972500425151876513e+00,1.089725402167835000e+01
3.977500425866416389e+00,1.086785089300229856e+01
3.982500426580955377e+00,1.088454573589694974e+01
3.987500427295495697e+00,1.078889576588136379e+01
3.992500428010035574e+00,1.069934417143247174e+01
3.997500428724574562e+00,1.068565859063028256e+01
4.002500429439114882e+00,1.054282637491354535e+01
4.007500430153654314e+00,1.033957753838052440e+01
4.012500430868193746e+00,1.018938085162056950e+01
4.017500431582734066e+00,9.852799798827163613e+00
4.022500432297273498e+00,9.987919823971424194e+00
4.027500433011812930e+00,1.000999798908566163e+01
4.032500433726354139e+00,9.602235679420914494e+00
4.037500434440892683e+00,9.314838662118631873e+00
4.042500435155433003e+00,9.190352779649742843e+00
4.047500435869973323e+00,9.487022104187587956e+00
4.052500436584511867e+00,9.949876584169999205e+00
4.057500437299052187e+00,1.047494713226672047e+01
4.062500438013592508e+00,1.071912890670438401e+01
4.067500438728131051e+00,1.096877261993648744e+01
4.072500439442671372e+00,1.099963937270189263e+01
4.077500440157211692e+00,1.098751466777127916e+01
4.082500440871750236e+00,1.113473428892700667e+01
4.087500441586291444e+00,1.100191037525490856e+01
4.092500442300830876e+00,1.091354055207602869e+01
4.097500443015369420e+00,1.110766613414460835e+01
4.102500443729910629e+00,1.145282158860896971e+01
4.107500444444450061e+00,1.196469713273967272e+01
4.112500445158989493e+00,1.271632550157789865e+01
4.117500445873529813e+00,1.350324308081769686e+01
4.122500446588069245e+00,1.469227530726669784e+01
4.127500447302608677e+00,1.620643046774245022e+01
4.132500448017148997e+00,1.816677591984455375e+01
4.137500448731688429e+00,2.048768345335037111e+01
4.142500449446227861e+00,2.267495551098619444e+01
4.147500450160768182e+00,2.383107421193102482e+01
4.152500450875307614e+00,2.366936150813359063e+01
4.157500451589847934e+00,2.253024505351896778e+01
4.162500452304387366e+00,2.058810634858480171e+01
4.167500453018926798e+00,1.849562888499872315e+01
4.172500453733467118e+00,1.646723320425570591e+01
4.177500454448006550e+00,1.464727147782065231e+01
4.182500455162545983e+00,1.358051700914546700e+01
4.187500455877086303e+00,1.270783073763828952e+01
4.192500456591625735e+00,1.180012119966374939e+01
4.197500457306165167e+00,1.099810893290236891e+01
4.202500458020705487e+00,1.042731671078712452e+01
4.207500458735244919e+00,1.021467110506540621e+01
4.212500459449784351e+00,1.014096830617188516e+01
4.217500460164324672e+00,1.009018442602405230e+01
4.222500460878864104e+00,9.916357822300597036e+00
4.227500461593404424e+00,9.579300768423422596e+00
4.232500462307943856e+00,9.462043301273013185e+00
4.237500463022484176e+00,9.590712371637948763e+00
4.242500463737023608e+00,9.783152449741862711e+00
4.247500464451563040e+00,9.780242663973808703e+00
4.252500465166103361e+00,9.545579418133343097e+00
4.257500465880642793e+00,9.058475659065152286e+00
4.262500466595182225e+00,8.875575866951407988e+00
4.267500467309722545e+00,9.135159033882928270e+00
4.272500468024261977e+00,9.417368156103009369e+00
4.277500468738801409e+00,9.606392851250575404e+00
4.282500469453341729e+00,9.307766721696793866e+00
4.287500470167881161e+00,9.186807296005781609e+00
4.292500470882420593e+00,9.089221497739572442e+00
4.297500471596961802e+00,9.223295586918311528e+00
4.302500472311500346e+00,9.302625872964142673e+00
4.307500473026040666e+00,9.434638001864527723e+00
4.312500473740580986e+00,9.714092815600224640e+00
4.317500474455119530e+00,9.713870043603492377e+00
4.322500475169659850e+00,9.397352336014250795e+00
4.327500475884200171e+00,9.239824189512660269e+00
4.332500476598738715e+00,9.259203148542781037e+00
4.337500477313279035e+00,9.255328135441914128e+00
4.342500478027819355e+00,9.218345680959430410e+00
4.347500478742357899e+00,9.268407189933611789e+00
4.352500479456899107e+00,9.311552730403093392e+00
4.357500480171438539e+00,9.415107762172567618e+00
4.362500480885977083e+00,9.399480011862578976e+00
4.367500481600518292e+00,9.427179248348522833e+00
4.372500482315056836e+00,9.636575827732087873e+00
4.377500483029597156e+00,9.715814267607640886e+00
4.382500483744137476e+00,9.907573989298555261e+00
4.387500484458676020e+00,1.001740061673251603e+01
4.392500485173216340e+00,9.848093183520404637e+00
4.397500485887756660e+00,1.009582229706580847e+01
4.402500486602295204e+00,1.034295850775271219e+01
4.407500487316835525e+00,1.068233988711659777e+01
4.412500488031375845e+00,1.121858428375026051e+01
4.417500488745914389e+00,1.158542330772451123e+01
4.422500489460455597e+00,1.181017376618029857e+01
4.427500490174995029e+00,1.168147447978105902e+01
4.432500490889533573e+00,1.179780923197506581e+01
4.437500491604074782e+00,1.203106878076010844e+01
4.442500492318614214e+00,1.206109675716419360e+01
4.447500493033153646e+00,1.205089108130607656e+01
4.452500493747693966e+00,1.240286006595385970e+01
4.457500494462233398e+00,1.283136269977211441e+01
4.462500495176772830e+00,1.303699453603650227e+01
4.467500495891313150e+00,1.327937211650481686e+01
4.472500496605852582e+00,1.344878824489711633e+01
4.477500497320392014e+00,1.374702863732858305e+01
4.482500498034932335e+00,1.434435434422658773e+01
4.487500498749471767e+00,1.477647440662195777e+01
4.492500499464012087e+00,1.506087886400365505e+01
4.497500500178551519e+00,1.521298255318714610e+01
4.502500500893091839e+00,1.549023521577811380e+01
4.507500501607631271e+00,1.586831778727452047e+01
4.512500502322170703e+00,1.608646100062350115e+01
4.517500503036711024e+00,1.652809113821393794e+01
4.522500503751250456e+00,1.699200923113534145e+01
4.527500504465789888e+00,1.792160858851406147e+01
4.532500505180330208e+00,1.912215995380239519e+01
4.537500505894869640e+00,2.023508518645883214e+01
4.542500506609409072e+00,2.121186473268926420e+01
4.547500507323949392e+00,2.159147292822018471e+01
4.552500508038488825e+00,2.154420124052438723e+01
4.557500508753028257e+00,2.100068658917138009e+01
4.562500509467568577e+00,2.006997164859984650e+01
4.567500510182108009e+00,1.943711837354504723e+01
4.572500510896648329e+00,1.961824339946741702e+01
4.577500511611187761e+00,2.005194870665161488e+01
4.582500512325727193e+00,2.057786776282176788e+01
4.587500513040267514e+00,2.112773607981819168e+01
4.592500513754806946e+00,2.171220761988405457e+01
4.597500514469346378e+00,2.241313384843550693e+01
4.602500515183886698e+00,2.274113819698834504e+01
4.607500515898426130e+00,2.269619345577171998e+01
4.612500516612965562e+00,2.255091645149735768e+01
4.617500517327505882e+00,2.257478069387997266e+01
4.622500518042045314e+00,2.288171159051495351e+01
4.627500518756584746e+00,2.324185402503866271e+01
4.632500519471125955e+00,2.345495492552186079e+01
4.637500520185664499e+00,2.364613963169176714e+01
4.642500520900204819e+00,2.388679202191906370e+01
4.647500521614745139e+00,2.433405036286069389e+01
4.652500522329283683e+00,2.488592815910328682e+01
4.657500523043824003e+00,2.598471991491481958e+01
4.662500523758364324e+00,2.725161417138781417e+01
4.667500524472902868e+00,2.834332192444003340e+01
4.672500525187443188e+00,2.955363912484801858e+01
4.677500525901983508e+00,3.083853212749744443e+01
4.682500526616522052e+00,3.201090087501046355e+01
4.687500527331063260e+00,3.273508573371407238e+01
4.692500528045602692e+00,3.305717144875046642e+01
4.697500528760141236e+00,3.274504451715580444e+01
4.702500529474682445e+00,3.210074060000101781e+01
4.707500530189221877e+00,3.123614032320386968e+01
4.712500530903761309e+00,3.060223563498260546e+01
4.717500531618301629e+00,3.021227433713619348e+01
4.722500532332841061e+00,2.984839460655990706e+01
4.727500533047380493e+00,2.962125634293153098e+01
4.732500533761920813e+00,2.960196865897637508e+01
4.737500534476460246e+00,3.012476322034098075e+01
4.742500535190999678e+00,3.087842490968563425e+01
4.747500535905539998e+00,3.144782625054205027e+01
4.752500536620079430e+00,3.195290445812423741e+01
4.757500537334618862e+00,3.224702569717021561e+01
4.762500538049159182e+00,3.297637228900288164e+01
4.767500538763698614e+00,3.362330819007377158e+01
4.772500539478238046e+00,3.435080037871148306e+01
4.777500540192778367e+00,3.516349063249339224e+01
4.782500540907317799e+00,3.598121237397759842e+01
4.787500541621858119e+00,3.688697651057464100e+01
4.792500542336397551e+00,3.752147216699762566e+01
4.797500543050936983e+00,3.808938382396206634e+01
4.802500543765477303e+00,3.894908248032271558e+01
4.807500544480016735e+00,3.990373283083573597e+01
4.812500545194556167e+00,4.037832573688899629e+01
4.817500545909096488e+00,4.061908008199844744e+01
4.822500546623636808e+00,4.114516396324086145e+01
4.827500547338175352e+00,4.197354820690605948e+01
4.832500548052715672e+00,4.303435060680453716e+01
4.837500548767255992e+00,4.426943821921639710e+01
4.842500549481794536e+00,4.531089415979232626e+01
4.847500550196334856e+00,4.654751540631428952e+01
4.852500550910875177e+00,4.782171221278412077e+01
4.857500551625414609e+00,4.926376714265239798e+01
4.862500552339954041e+00,5.053084874071936383e+01
4.867500553054494361e+00,5.180368511714459601e+01
4.872500553769033793e+00,5.306348045137917779e+01
4.877500554483574113e+00,5.441302094922167498e+01
4.882500555198113545e+00,5.584541263581201065e+01
4.887500555912652977e+00,5.727057061346943101e+01
4.892500556627193298e+00,5.888854059492001625e+01
4.897500557341732730e+00,6.032438659863373687e+01
4.902500558056272162e+00,6.158375735509918059e+01
4.907500558770812482e+00,6.274056941231646078e+01
4.912500559485352802e+00,6.386779326863432971e+01
4.917500560199891346e+00,6.516529150753905242e+01
4.922500560914431667e+00,6.648185248908561107e+01
4.927500561628971987e+00,6.810831168781095357e+01
4.932500562343510531e+00,6.999569134119604996e+01
4.937500563058050851e+00,7.183271509812635713e+01
4.942500563772590283e+00,7.405194205211824965e+01
4.947500564487130603e+00,7.622033070618607553e+01
4.952500565201670035e+00,7.787346748849051892e+01
4.957500565916209467e+00,7.980279819767332583e+01
4.962500566630749788e+00,8.179482478022447367e+01
4.967500567345289220e+00,8.431192198089462408e+01
4.972500568059828652e+00,8.641524994037507668e+01
4.977500568774368972e+00,8.838816728125641475e+01
4.982500569488909292e+00,9.054921938930124270e+01
4.987500570203447836e+00,9.249020604041965044e+01
4.992500570917988156e+00,9.466581152764376839e+01
4.997500571632528477e+00,9.677244987599357273e+01
5.002500572347067020e+00,9.909964423703007697e+01
5.007500573061607341e+00,1.013419470548919321e+02
5.012500573776147661e+00,1.033915120878019138e+02
5.017500574490687093e+00,1.053140465565253407e+02
5.022500575205226525e+00,1.073206129022036066e+02
5.027500575919766845e+00,1.091195269797348715e+02
5.032500576634306277e+00,1.105295172374824801e+02
5.037500577348845709e+00,1.113625372172955963e+02
5.042500578063386030e+00,1.121394637967179051e+02
5.047500578777925462e+00,1.131589753628350650e+02
5.052500579492465782e+00,1.141655205622966491e+02
5.057500580207005214e+00,1.149812763091479724e+02
5.062500580921544646e+00,1.157050613590691341e+02
5.067500581636084966e+00,1.158335826472862777e+02
5.072500582350624398e+00,1.158455722514814283e+02
5.077500583065163831e+00,1.156576589738440930e+02
5.082500583779704151e+00,1.154273163391375761e+02
5.087500584494244471e+00,1.149461121064375106e+02
5.092500585208783015e+00,1.138889453296981742e+02
5.097500585923323335e+00,1.125642904983968720e+02
5.102500586637863655e+00,1.114994941684120704e+02
5.107500587352402199e+00,1.107891941514967016e+02
5.112500588066942520e+00,1.096799752770151031e+02
5.117500588781482840e+00,1.082969929271184242e+02
5.122500589496022272e+00,1.067700106344196342e+02
5.127500590210561704e+00,1.045932328456842697e+02
5.132500590925102024e+00,1.024020383202865787e+02
5.137500591639641456e+00,9.992186318686788127e+01
5.142500592354181776e+00,9.705447413671566892e+01
5.147500593068720320e+00,9.460614835542122592e+01
5.152500593783260641e+00,9.241252093500764886e+01
5.157500594497800961e+00,9.010771939543263898e+01
5.162500595212339505e+00,8.818298795218390751e+01
5.167500595926879825e+00,8.617388234051611562e+01
5.172500596641420145e+00,8.387953861429690505e+01
5.177500597355959577e+00,8.150638042141486039e+01
5.182500598070499009e+00,7.909625010731252814e+01
5.187500598785039330e+00,7.673417238687949293e+01
5.192500599499578762e+00,7.430345078001602133e+01
5.197500600214118194e+00,7.200583973079108091e+01
5.202500600928658514e+00,6.993298625785018885e+01
5.207500601643197946e+00,6.808547292318229438e+01
5.212500602357738266e+00,6.637474043955870684e+01
5.217500603072277698e+00,6.482078054164344394e+01
5.222500603786817130e+00,6.339439062468244401e+01
5.227500604501357451e+00,6.202364347108209586e+01
5.232500605215896883e+00,6.060139457464470070e+01
5.237500605930436315e+00,5.918718643746007047e+01
5.242500606644976635e+00,5.813871829648434186e+01
5.247500607359516955e+00,5.749160686574373358e+01
5.252500608074055499e+00,5.731155918791324666e+01
5.257500608788595819e+00,5.738526008550439883e+01
5.262500609503136140e+00,5.775369735619403855e+01
5.267500610217674684e+00,5.806451772987139748e+01
5.272500610932215004e+00,5.816962208349758612e+01
5.277500611646755324e+00,5.752708194502741890e+01
5.282500612361294756e+00,5.613635067506612586e+01
5.287500613075834188e+00,5.386672416024379118e+01
5.292500613790374508e+00,5.073602733666876929e+01
5.297500614504913941e+00,4.741696184619235055e+01
5.302500615219453373e+00,4.441917390751854100e+01
5.307500615933993693e+00,4.155968278301594410e+01
5.312500616648533125e+00,3.927696769279492628e+01
5.317500617363073445e+00,3.736811991433245339e+01
5.322500618077612877e+00,3.549638062428391549e+01
5.327500618792152309e+00,3.359635330084142879e+01
5.332500619506692630e+00,3.190922100890531965e+01
5.337500620221232062e+00,3.048622540400424441e+01
5.342500620935771494e+00,2.923453465223258263e+01
5.347500621650311814e+00,2.787537331307731847e+01
5.352500622364851246e+00,2.653475109919730812e+01
5.357500623079390678e+00,2.539116795456340014e+01
5.362500623793930998e+00,2.445427006033202133e+01
5.367500624508470430e+00,2.355084226649972834e+01
5.372500625223009862e+00,2.270441624621457777e+01
5.377500625937550183e+00,2.220707835711783673e+01
5.382500626652089615e+00,2.180730533471745503e+01
5.387500627366629935e+00,2.081177093302721914e+01
5.392500628081169367e+00,1.959028977223675838e+01
5.397500628795708799e+00,1.846278022935001673e+01
5.402500629510249119e+00,1.740843191866758843e+01
5.407500630224788551e+00,1.675552502773831520e+01
5.412500630939327984e+00,1.633816859862253068e+01
5.417500631653868304e+00,1.589904100642081630e+01
5.422500632368408624e+00,1.520669952960020055e+01
5.427500633082947168e+00,1.463019582852297162e+01
5.432500633797487488e+00,1.413657350405401303e+01
5.437500634512027808e+00,1.333936052921330884e+01
5.442500635226567240e+00,1.268414664176890483e+01
5.447500635941106673e+00,1.192792294385810692e+01
5.452500636655646993e+00,1.132816881606299830e+01
5.457500637370186425e+00,1.094647130218936582e+01
5.462500638084725857e+00,1.058990084170085311e+01
5.467500638799266177e+00,1.030484671895084148e+01
5.472500639513805609e+00,9.973422092491603053e+00
5.477500640228345929e+00,9.827746221649761083e+00
5.482500640942885362e+00,9.829949349350954435e+00
5.487500641657424794e+00,9.597374118147968147e+00
5.492500642371965114e+00,9.050311165936250291e+00
5.497500643086504546e+00,8.355114360341588053e+00
