1.502500072169232093e+00,3.154950409808748191e+00
1.507500072883772191e+00,5.444467864743728569e+00
1.512500073598311845e+00,7.679559555468813414e+00
1.517500074312851721e+00,9.443690086274614259e+00
1.522500075027391375e+00,1.109015765690151056e+01
1.527500075741931251e+00,1.327645690183089755e+01
1.532500076456470905e+00,1.554331946304637313e+01
1.537500077171010782e+00,1.720906217909322322e+01
1.542500077885550436e+00,1.778313082991564897e+01
1.547500078600090090e+00,1.776398225975094647e+01
1.552500079314630188e+00,1.805644281755905922e+01
1.557500080029169620e+00,1.897381411109131477e+01
1.562500080743709496e+00,2.005104443400335867e+01
1.567500081458249372e+00,2.081426005547058367e+01
1.572500082172789027e+00,2.062463732936168981e+01
1.577500082887328903e+00,2.078634340619180421e+01
1.582500083601868335e+00,2.143795472755135734e+01
1.587500084316408433e+00,2.225457498272305656e+01
1.592500085030948087e+00,2.271126287905730123e+01
1.597500085745487741e+00,2.237520747026792378e+01
1.602500086460027617e+00,2.183846744890820446e+01
1.607500087174567494e+00,2.121003661007694063e+01
1.612500087889107148e+00,2.073736488089656405e+01
1.617500088603646802e+00,2.037654878296541483e+01
1.622500089318186678e+00,2.034546256803503184e+01
1.627500090032726332e+00,2.051691620855859810e+01
1.632500090747266430e+00,2.078675845602458594e+01
1.637500091461805862e+00,2.075286246707582904e+01
1.642500092176345738e+00,2.034949472986056662e+01
1.647500092890885615e+00,1.981252505428665245e+01
1.652500093605425047e+00,1.946656649338933676e+01
1.657500094319965145e+00,1.972882058644074732e+01
1.662500095034504799e+00,1.994589989647073480e+01
1.667500095749044675e+00,1.975137198283806583e+01
1.672500096463584329e+00,1.919243789479423867e+01
1.677500097178123983e+00,1.803419245167890494e+01
1.682500097892663860e+00,1.674247338983525424e+01
1.687500098607203736e+00,1.613403838992383044e+01
1.692500099321743390e+00,1.606754410574069425e+01
1.697500100036283044e+00,1.597510136447067453e+01
1.702500100750823142e+00,1.578863627471247355e+01
1.707500101465362574e+00,1.550303111923722099e+01
1.712500102179902450e+00,1.487946300123934407e+01
1.717500102894442326e+00,1.433154278315180363e+01
1.722500103608981981e+00,1.423430558756342634e+01
1.727500104323521857e+00,1.437599304579441650e+01
1.732500105038061289e+00,1.453569003827806227e+01
1.737500105752601387e+00,1.454213208886585562e+01
1.742500106467141041e+00,1.449633111814182485e+01
1.747500107181680695e+00,1.426013137215886672e+01
1.752500107896220571e+00,1.377841403246526397e+01
1.757500108610760448e+00,1.377538629844161733e+01
1.762500109325300102e+00,1.372092051812933278e+01
1.767500110039839756e+00,1.340748902185202951e+01
1.772500110754379632e+00,1.331976252973345254e+01
1.777500111468919286e+00,1.334435748467524263e+01
1.782500112183459384e+00,1.356634485963519410e+01
1.787500112897998816e+00,1.370574309545787628e+01
1.792500113612538692e+00,1.372295635090557653e+01
1.797500114327078569e+00,1.321901255708377221e+01
1.802500115041618223e+00,1.315031563173198492e+01
1.807500115756158099e+00,1.356515672643962489e+01
1.812500116470697753e+00,1.408189417475216487e+01
1.817500117185237629e+00,1.479917079352378551e+01
1.822500117899777283e+00,1.498213216056461761e+01
1.827500118614316937e+00,1.460722643499616424e+01
1.832500119328856814e+00,1.431374245859944949e+01
1.837500120043396690e+00,1.457415889206879456e+01
1.842500120757936344e+00,1.535454462054855185e+01
1.847500121472475998e+00,1.614333684447552741e+01
1.852500122187016096e+00,1.651075881862226424e+01
1.857500122901555528e+00,1.647783842098243667e+01
1.862500123616095404e+00,1.599794503197807671e+01
1.867500124330635058e+00,1.622040038804857431e+01
1.872500125045175157e+00,1.699505623189668313e+01
1.877500125759714811e+00,1.815790833946959992e+01
1.882500126474254243e+00,1.936419589829245069e+01
1.887500127188794341e+00,2.006267520199844512e+01
1.892500127903333995e+00,2.035291946770149707e+01
1.897500128617873427e+00,2.048733300863830209e+01
1.902500129332413525e+00,2.063592175426856556e+01
1.907500130046953402e+00,2.127496513736946326e+01
1.912500130761493056e+00,2.195892772703541596e+01
1.917500131476032710e+00,2.262371241422431467e+01
1.922500132190572586e+00,2.323747829438792678e+01
1.927500132905112240e+00,2.373872051281244921e+01
1.932500133619652338e+00,2.448078931876773368e+01
1.937500134334191770e+00,2.524360882651325255e+01
1.942500135048731869e+00,2.623929226051222940e+01
1.947500135763271523e+00,2.714970910477120469e+01
1.952500136477810955e+00,2.831346631452021256e+01
1.957500137192351053e+00,2.960109143202555515e+01
1.962500137906890707e+00,3.036266443271449589e+01
1.967500138621430139e+00,3.092153111411369082e+01
1.972500139335970237e+00,3.133257336939971083e+01
1.977500140050510113e+00,3.161160983189353146e+01
1.982500140765049768e+00,3.170582435144063993e+01
1.987500141479589422e+00,3.174471204876937236e+01
1.992500142194129298e+00,3.172675535017754100e+01
1.997500142908669396e+00,3.220143083262422579e+01
2.002500143623208384e+00,3.262678369564082459e+01
2.007500144337748704e+00,3.282450589521363327e+01
2.012500145052288580e+00,3.274989464862881050e+01
2.017500145766828012e+00,3.198580996262569442e+01
2.022500146481367889e+00,3.121584969071773230e+01
2.027500147195907765e+00,3.072080950249755915e+01
2.032500147910447641e+00,3.038936404422463511e+01
2.037500148624987073e+00,2.986375786491771578e+01
2.042500149339526949e+00,2.938260937943562112e+01
2.047500150054066825e+00,2.866424217519181639e+01
2.052500150768606257e+00,2.809391036172195300e+01
2.057500151483146134e+00,2.750315648849795025e+01
2.062500152197686010e+00,2.639655715794322077e+01
2.067500152912225886e+00,2.501498597232182419e+01
2.072500153626765762e+00,2.347309523052166469e+01
2.077500154341305194e+00,2.230655714621400421e+01
2.082500155055845070e+00,2.175297816161457831e+01
2.087500155770384946e+00,2.139163894473381333e+01
2.092500156484924378e+00,2.070440748223109040e+01
2.097500157199464255e+00,1.982198542412271536e+01
2.102500157914004575e+00,1.883262391081433407e+01
2.107500158628544007e+00,1.795125199769421442e+01
2.112500159343083439e+00,1.673694492338273676e+01
2.117500160057623759e+00,1.550195121577826285e+01
2.122500160772163191e+00,1.458546589176518182e+01
2.127500161486702623e+00,1.363042489706367633e+01
2.132500162201242500e+00,1.283707566903984798e+01
2.137500162915782820e+00,1.231353256271120244e+01
2.142500163630322252e+00,1.175934008916465245e+01
2.147500164344861684e+00,1.106978200350272346e+01
2.152500165059402004e+00,1.051807125208051730e+01
2.157500165773941436e+00,9.998697146225083543e+00
2.162500166488480868e+00,9.831807692124243658e+00
2.167500167203021189e+00,9.774928346419073932e+00
2.172500167917561065e+00,9.452710556874365011e+00
2.177500168632100497e+00,8.763792119380354961e+00
2.182500169346640373e+00,7.841002261441985866e+00
2.187500170061180249e+00,7.383789625984434224e+00
2.192500170775719681e+00,7.067920762899234433e+00
2.197500171490259557e+00,6.407662751379689325e+00
2.202500172204799433e+00,5.913589601480907731e+00
2.207500172919339310e+00,5.417197737643448363e+00
2.212500173633879186e+00,5.059156736055115289e+00
2.217500174348418618e+00,5.132998294367951075e+00
2.222500175062958494e+00,4.919924586114746035e+00
2.227500175777497926e+00,4.574123206857734658e+00
2.232500176492037802e+00,4.240015714023002147e+00
2.237500177206577678e+00,3.835674379564977698e+00
2.242500177921117555e+00,3.538478932800103394e+00
2.247500178635657431e+00,3.403555285604966230e+00
2.252500179350196863e+00,3.130956933333322922e+00
2.257500180064736739e+00,2.608481121300485484e+00
2.262500180779277059e+00,2.366441798319840473e+00
2.267500181493816047e+00,2.183077335803602637e+00
2.272500182208355923e+00,1.997178705797523435e+00
2.277500182922896244e+00,1.648568000751311047e+00
2.282500183637435676e+00,1.180527636832607641e+00
2.287500184351975108e+00,9.832329751532142836e-01
2.292500185066515428e+00,7.322288882562588697e-01
2.297500185781055304e+00,5.967427523332844430e-01
2.302500186495594292e+00,4.400933866527338978e-01
2.307500187210134612e+00,2.656444265361415091e-01
2.312500187924674488e+00,3.986340917020925190e-02
2.317500188639213921e+00,0.000000000000000000e+00
2.322500189353753797e+00,1.417874124288118765e-01
2.327500190068293673e+00,1.363125286456465801e-01
2.332500190782833549e+00,3.650500829028260341e-01
2.337500191497372981e+00,4.756182802983630609e-01
2.342500192211912857e+00,7.124062416814922472e-01
2.347500192926452733e+00,1.062539583279829003e+00
2.352500193640992165e+00,1.178152148626850249e+00
2.357500194355532042e+00,1.181897486539526199e+00
2.362500195070071918e+00,1.153093873975251427e+00
2.367500195784611794e+00,1.425057082985915713e+00
2.372500196499151670e+00,1.743608684742355308e+00
2.377500197213691102e+00,2.005448855468216607e+00
2.382500197928230978e+00,2.046547492881984454e+00
2.387500198642770854e+00,2.079369561115640863e+00
2.392500199357310287e+00,2.165897554732509889e+00
2.397500200071850163e+00,2.040995759583779545e+00
2.402500200786390039e+00,2.006514259719210713e+00
2.407500201500929915e+00,2.068679077074421002e+00
2.412500202215469347e+00,2.216992320884855872e+00
2.417500202930009223e+00,2.448951428861846580e+00
2.422500203644549099e+00,2.630858496224504961e+00
2.427500204359088531e+00,2.957445522660805182e+00
2.432500205073628408e+00,3.271881739336777173e+00
2.437500205788168728e+00,3.552437430009547370e+00
2.442500206502708160e+00,3.583901170075137088e+00
2.447500207217247592e+00,3.604247309725053583e+00
2.452500207931787912e+00,3.875009511755138192e+00
2.457500208646327344e+00,4.210089347939117488e+00
2.462500209360866776e+00,4.556536330913672828e+00
2.467500210075407097e+00,4.951823307362133164e+00
2.472500210789946973e+00,5.171276880463778980e+00
2.477500211504486405e+00,5.337238789343246026e+00
2.482500212219026281e+00,5.324552972083552049e+00
2.487500212933566157e+00,5.240637589647803907e+00
2.492500213648105589e+00,5.616738690395663980e+00
2.497500214362645465e+00,6.389802771055258290e+00
2.502500215077185342e+00,7.136882296650924218e+00
2.507500215791725218e+00,7.888246054388446282e+00
2.512500216506264650e+00,8.689757085635903877e+00
2.517500217220804526e+00,9.472623664753598405e+00
2.522500217935344402e+00,1.025850794391016052e+01
2.527500218649883834e+00,1.077628620920472713e+01
2.532500219364423710e+00,1.143528496683597950e+01
2.537500220078963586e+00,1.222484759565475088e+01
2.542500220793503463e+00,1.308542809930008843e+01
2.547500221508043339e+00,1.397337992666803075e+01
2.552500222222582771e+00,1.465706803454474993e+01
2.557500222937122647e+00,1.522471190724638745e+01
2.562500223651662967e+00,1.600360552935831038e+01
2.567500224366201955e+00,1.724581685063958503e+01
2.572500225080741831e+00,1.872904838371493952e+01
2.577500225795282152e+00,1.988191186424603529e+01
2.582500226509821584e+00,2.082088503998386386e+01
2.587500227224361016e+00,2.161758462190795171e+01
2.592500227938901336e+00,2.210256877636135187e+01
2.597500228653441212e+00,2.270408224411340825e+01
2.602500229367980644e+00,2.348333466252961443e+01
2.607500230082520076e+00,2.437705427834146121e+01
2.612500230797060397e+00,2.550718033227337855e+01
2.617500231511599829e+00,2.710432497489580328e+01
2.622500232226139261e+00,2.887489973324318271e+01
2.627500232940679581e+00,3.053602762193770559e+01
2.632500233655219457e+00,3.214412590859456031e+01
2.637500234369758889e+00,3.350533702373610367e+01
2.642500235084298765e+00,3.494045165818846499e+01
2.647500235798838641e+00,3.606905793467524290e+01
2.652500236513378074e+00,3.698956460283176284e+01
2.657500237227917950e+00,3.828438902912233743e+01
2.662500237942457826e+00,3.981674064572308680e+01
2.667500238656997702e+00,4.150552329587048916e+01
2.672500239371537578e+00,4.329307815536429871e+01
2.677500240086077010e+00,4.482413881225687646e+01
2.682500240800616886e+00,4.630047604378864889e+01
2.687500241515156763e+00,4.761410704643236613e+01
2.692500242229696195e+00,4.912347951943678481e+01
2.697500242944236071e+00,5.078445311163318365e+01
2.702500243658775947e+00,5.247680699127363368e+01
2.707500244373315823e+00,5.408367710335147649e+01
2.712500245087855255e+00,5.536118507729690918e+01
2.717500245802395131e+00,5.686168651942358565e+01
2.722500246516935007e+00,5.864504420769998205e+01
2.727500247231474440e+00,6.021502946033638182e+01
2.732500247946014316e+00,6.175021813326236497e+01
2.737500248660554636e+00,6.340294081680565341e+01
2.742500249375094068e+00,6.501934509290526876e+01
2.747500250089633500e+00,6.664833718683968300e+01
2.752500250804173820e+00,6.771028314042627017e+01
2.757500251518713252e+00,6.838583327622086472e+01
2.762500252233252684e+00,6.900761531404589277e+01
2.767500252947793005e+00,6.980013305391355516e+01
2.772500253662332881e+00,7.057025709994792351e+01
2.777500254376872313e+00,7.166550733234248582e+01
2.782500255091412189e+00,7.268312883633291221e+01
2.787500255805952065e+00,7.329205235264339535e+01
2.792500256520491497e+00,7.387330565565298457e+01
2.797500257235031373e+00,7.438286755850151621e+01
2.802500257949571250e+00,7.469831708420031191e+01
2.807500258664111126e+00,7.476220504883622198e+01
2.812500259378650558e+00,7.483852378929759652e+01
2.817500260093190434e+00,7.528794520153405756e+01
2.822500260807730310e+00,7.605607147411433289e+01
2.827500261522270186e+00,7.695773684716601792e+01
2.832500262236809618e+00,7.761603349239425143e+01
2.837500262951349495e+00,7.810574413137180727e+01
2.842500263665889371e+00,7.849920995655088518e+01
2.847500264380429247e+00,7.867388678468580565e+01
2.852500265094968679e+00,7.882574227469689276e+01
2.857500265809508555e+00,7.865474176857156863e+01
2.862500266524048875e+00,7.818601528459504379e+01
2.867500267238588307e+00,7.762743198127691358e+01
2.872500267953127739e+00,7.756292901579558929e+01
2.877500268667668060e+00,7.772485041219908908e+01
2.882500269382207492e+00,7.801533988467156178e+01
2.887500270096746924e+00,7.808016286001156914e+01
2.892500270811286800e+00,7.762990398837706607e+01
2.897500271525826676e+00,7.685628794503907102e+01
2.902500272240366552e+00,7.561812303485913844e+01
2.907500272954905984e+00,7.454533561706739420e+01
2.912500273669446305e+00,7.333581458862710178e+01
2.917500274383985737e+00,7.190995240079035966e+01
2.922500275098525169e+00,7.050747733541328444e+01
2.927500275813065489e+00,6.892686390625675585e+01
2.932500276527604921e+00,6.757641928567352352e+01
2.937500277242144797e+00,6.615818223128241016e+01
2.942500277956684673e+00,6.457139598724387497e+01
2.947500278671224549e+00,6.261496189841921023e+01
2.952500279385763982e+00,6.051185347373615286e+01
2.957500280100304302e+00,5.849130022493807246e+01
2.962500280814843734e+00,5.680593854634088302e+01
2.967500281529383166e+00,5.589285297543989373e+01
2.972500282243923486e+00,5.540717604725659839e+01
2.977500282958462918e+00,5.455250211352392853e+01
2.982500283673002794e+00,5.239396717748650190e+01
2.987500284387542226e+00,4.950595397283245802e+01
2.992500285102082547e+00,4.709275846840080249e+01
2.997500285816621979e+00,4.507410012287829204e+01
3.002500286531161411e+00,4.351599957112989614e+01
3.007500287245701731e+00,4.231794293161703990e+01
3.012500287960241163e+00,4.128948092825817184e+01
3.017500288674781039e+00,4.037868348103347671e+01
3.022500289389320915e+00,3.916087872040992579e+01
3.027500290103860792e+00,3.809121646464996047e+01
3.032500290818400224e+00,3.725555323031392163e+01
3.037500291532940100e+00,3.628539974275793156e+01
3.042500292247479976e+00,3.541724710873245385e+01
3.047500292962019408e+00,3.429786466866039518e+01
3.052500293676559728e+00,3.274443183328617124e+01
3.057500294391099160e+00,3.120623852382931318e+01
3.062500295105639037e+00,2.978516246760284503e+01
3.067500295820178913e+00,2.883103663034404462e+01
3.072500296534718789e+00,2.837490727353497277e+01
3.077500297249258221e+00,2.795786085937675125e+01
3.082500297963798097e+00,2.753791492059889379e+01
3.087500298678337973e+00,2.716869848104244056e+01
3.092500299392877405e+00,2.676135391178638656e+01
3.097500300107417281e+00,2.629477252749950367e+01
3.102500300821957158e+00,2.568775645231772842e+01
3.107500301536497034e+00,2.527793097399887756e+01
3.112500302251036466e+00,2.467068253283269996e+01
3.117500302965576342e+00,2.398784646640768869e+01
3.122500303680116218e+00,2.340933298679289010e+01
3.127500304394655650e+00,2.299374485693078896e+01
3.132500305109195970e+00,2.255099702015246521e+01
3.137500305823735403e+00,2.205375458905905361e+01
3.142500306538275279e+00,2.137080076603922407e+01
3.147500307252815155e+00,2.064136545714114845e+01
3.152500307967354587e+00,1.997495437421889619e+01
3.157500308681894463e+00,1.969689346910450922e+01
3.162500309396434339e+00,1.976483284043217736e+01
3.167500310110974215e+00,1.989197671467445616e+01
3.172500310825513647e+00,2.008324677678228909e+01
3.177500311540053524e+00,2.001534808871247151e+01
3.182500312254593400e+00,1.950442045716545181e+01
3.187500312969132832e+00,1.895394492827341537e+01
3.192500313683672708e+00,1.876331312407921814e+01
3.197500314398212584e+00,1.875250986026117062e+01
3.202500315112752460e+00,1.836865611541310273e+01
3.207500315827291892e+00,1.775735912922823445e+01
3.212500316541832213e+00,1.718464843817673682e+01
3.217500317256371645e+00,1.689403154008522279e+01
3.222500317970911521e+00,1.688148779113151932e+01
3.227500318685451397e+00,1.708498256651108704e+01
3.232500319399990829e+00,1.719858469257701472e+01
3.237500320114530705e+00,1.703855531452711602e+01
3.242500320829070581e+00,1.667683178361573937e+01
3.247500321543610458e+00,1.627913190568818891e+01
3.252500322258149890e+00,1.597360628541656524e+01
3.257500322972690210e+00,1.604758515294975041e+01
3.262500323687229642e+00,1.647010033704583520e+01
3.267500324401769074e+00,1.688016651554255532e+01
3.272500325116308950e+00,1.702254171387141923e+01
3.277500325830848826e+00,1.686470118247274286e+01
3.282500326545388702e+00,1.669568383279931822e+01
3.287500327259928135e+00,1.683373383933559353e+01
3.292500327974468455e+00,1.716273862832633768e+01
3.297500328689007887e+00,1.727563097783297508e+01
3.302500329403547319e+00,1.728203672325275875e+01
3.307500330118087639e+00,1.755171347845936225e+01
3.312500330832627071e+00,1.778617539209722054e+01
3.317500331547166947e+00,1.790879934918081062e+01
3.322500332261706824e+00,1.792520705160103489e+01
3.327500332976246700e+00,1.776808313378057846e+01
3.332500333690786132e+00,1.792586779004392383e+01
3.337500334405326008e+00,1.857892620862895683e+01
3.342500335119865884e+00,1.917547630646902235e+01
3.347500335834405316e+00,1.935041197178992434e+01
3.352500336548945636e+00,1.954450472466862720e+01
3.357500337263485068e+00,1.978690493813644480e+01
3.362500337978024945e+00,2.012000756123126166e+01
3.367500338692564377e+00,2.043380270532810528e+01
3.372500339407104697e+00,2.071813394530971664e+01
3.377500340121644129e+00,2.104441829065490310e+01
3.382500340836183561e+00,2.129779340261808329e+01
3.387500341550723881e+00,2.157628751648348953e+01
3.392500342265263313e+00,2.187996739115902756e+01
3.397500342979803190e+00,2.209433674704888517e+01
3.402500343694343066e+00,2.234287532892233230e+01
3.407500344408882942e+00,2.283829623049888369e+01
3.412500345123422374e+00,2.319092602176294804e+01
3.417500345837962250e+00,2.335246085283966977e+01
3.422500346552502126e+00,2.340347255786622327e+01
3.427500347267041558e+00,2.341501143854821976e+01
3.432500347981581879e+00,2.371554352036952196e+01
3.437500348696121311e+00,2.415349327754768183e+01
3.442500349410661187e+00,2.451481565486312775e+01
3.447500350125201063e+00,2.472435104846823606e+01
3.452500350839740495e+00,2.498175059919441310e+01
3.457500351554280371e+00,2.542611852687127794e+01
3.462500352268820247e+00,2.579528337089334400e+01
3.467500352983360123e+00,2.595338588117431300e+01
3.472500353697899556e+00,2.586536632316108353e+01
3.477500354412439432e+00,2.567508947815684905e+01
3.482500355126979308e+00,2.574340006356436561e+01
3.487500355841518740e+00,2.588524431523495650e+01
3.492500356556058616e+00,2.588633258544035698e+01
3.497500357270598492e+00,2.594579681388773906e+01
3.502500357985138368e+00,2.617796054756252033e+01
3.507500358699677800e+00,2.663492194884582887e+01
3.512500359414218121e+00,2.685699935246191217e+01
3.517500360128757553e+00,2.664247613882605492e+01
3.522500360843297429e+00,2.642699526559391643e+01
3.527500361557837305e+00,2.638429779334995828e+01
3.532500362272376737e+00,2.644526585465098378e+01
3.537500362986916613e+00,2.610181669728740417e+01
3.542500363701456489e+00,2.562165488183791240e+01
3.547500364415996366e+00,2.546077838547256533e+01
3.552500365130535798e+00,2.558418783075285319e+01
3.557500365845075674e+00,2.565387476716307447e+01
3.562500366559615550e+00,2.558216639795432457e+01
3.567500367274154982e+00,2.532869213315478873e+01
3.572500367988694858e+00,2.482344877539264871e+01
3.577500368703234734e+00,2.455585081313688534e+01
3.582500369417774611e+00,2.468587544050012639e+01
3.587500370132314043e+00,2.497005743055262883e+01
3.592500370846854363e+00,2.501863024887069287e+01
3.597500371561393795e+00,2.482866814364291486e+01
3.602500372275933227e+00,2.463354293304297471e+01
3.607500372990473547e+00,2.448663372228395474e+01
3.612500373705012979e+00,2.415494262653305668e+01
3.617500374419552855e+00,2.346241752507347655e+01
3.622500375134092732e+00,2.283041837014945941e+01
3.627500375848632608e+00,2.230063588839095701e+01
3.632500376563172040e+00,2.197195071192078331e+01
3.637500377277712360e+00,2.168997805633625831e+01
3.642500377992251792e+00,2.119114120728175976e+01
3.647500378706791224e+00,2.057950867889530855e+01
3.652500379421331100e+00,2.010929543475140235e+01
3.657500380135870977e+00,1.993483237052276991e+01
3.662500380850410853e+00,1.988092153882632829e+01
3.667500381564950285e+00,1.963332687211396888e+01
3.672500382279490605e+00,1.932043922196800168e+01
3.677500382994030037e+00,1.885543944527040594e+01
3.682500383708569469e+00,1.840187457630639756e+01
3.687500384423109789e+00,1.779251158675810984e+01
3.692500385137649221e+00,1.714826438788213636e+01
3.697500385852189098e+00,1.685103318620298296e+01
3.702500386566728974e+00,1.660754725717202973e+01
3.707500387281268850e+00,1.617217378327802635e+01
3.712500387995808282e+00,1.580275891871900740e+01
3.717500388710348158e+00,1.544464878571216104e+01
3.722500389424888034e+00,1.519354958213040163e+01
3.727500390139427910e+00,1.506249535515325988e+01
3.732500390853967343e+00,1.472617173194686302e+01
3.737500391568507219e+00,1.439228432807658464e+01
3.742500392283047095e+00,1.389799429459009161e+01
3.747500392997586527e+00,1.349367075962993567e+01
3.752500393712126403e+00,1.322802266457568976e+01
3.757500394426666279e+00,1.293354187948079925e+01
3.762500395141205711e+00,1.262536794936914930e+01
3.767500395855746476e+00,1.250614038935486860e+01
3.772500396570285464e+00,1.246767715163900903e+01
3.777500397284825340e+00,1.223101979172099618e+01
3.782500397999365660e+00,1.167828161312445445e+01
3.787500398713904648e+00,1.093739498204570282e+01
3.792500399428444524e+00,1.051800610293423688e+01
3.797500400142984844e+00,1.036680338782480248e+01
3.802500400857523832e+00,1.016787146043282064e+01
3.807500401572063708e+00,9.895059320404243408e+00
3.812500402286604029e+00,9.637358761469897672e+00
3.817500403001143017e+00,9.242275953661646781e+00
3.822500403715683781e+00,8.983617088026790043e+00
3.827500404430223213e+00,8.788417087746893230e+00
3.832500405144762201e+00,8.672303377849800654e+00
3.837500405859302965e+00,8.616540563122271124e+00
3.842500406573842398e+00,8.265723299381534162e+00
3.847500407288382274e+00,7.679302172557640915e+00
3.852500408002922150e+00,7.257151325820586862e+00
3.857500408717461138e+00,6.970098244911298480e+00
3.862500409432001458e+00,6.906890311046424813e+00
3.867500410146541334e+00,6.785242164371027229e+00
3.872500410861080322e+00,6.755333018580927273e+00
3.877500411575620642e+00,6.474910420856758719e+00
3.882500412290160519e+00,6.120734343826256918e+00
3.887500413004699507e+00,5.765072547059446606e+00
3.892500413719240715e+00,5.291136368247578048e+00
3.897500414433779703e+00,5.054823887428199214e+00
3.902500415148318691e+00,5.024459917381648211e+00
3.907500415862859899e+00,4.923496199104420157e+00
3.912500416577398887e+00,4.737713550404407670e+00
3.917500417291938763e+00,4.303173526216426126e+00
3.922500418006479084e+00,3.912877354305692279e+00
3.927500418721018072e+00,3.807458074094085987e+00
3.932500419435557948e+00,3.558633905956924082e+00
3.937500420150097824e+00,3.256372558014732022e+00
3.942500420864637256e+00,3.106333853240471399e+00
3.947500421579177132e+00,3.057952004999094697e+00
3.952500422293717008e+00,3.474296457042839847e+00
3.957500423008256440e+00,3.810935409048568090e+00
3.962500423722797205e+00,3.856750025751239264e+00
3.967500424437336193e+00,3.504564319901646741e+00
3.972500425151876513e+00,3.166092662177788952e+00
3.977500425866416389e+00,2.840573814532262986e+00
3.982500426580955377e+00,2.798151057287611820e+00
3.987500427295495697e+00,2.905220089669910521e+00
3.992500428010035574e+00,3.224526686199567393e+00
3.997500428724574562e+00,3.336669382376669546e+00
4.002500429439114882e+00,3.212413927947125103e+00
4.007500430153654314e+00,3.014908863210280288e+00
4.012500430868193746e+00,2.886184542594037339e+00
4.017500431582734066e+00,2.763803525415653439e+00
4.022500432297273498e+00,2.797303447109868557e+00
4.027500433011812930e+00,3.068808591628169324e+00
4.032500433726354139e+00,3.269329940400325540e+00
4.037500434440892683e+00,3.209385289652402662e+00
4.042500435155433003e+00,3.085173566944718004e+00
4.047500435869973323e+00,3.066007692629682424e+00
4.052500436584511867e+00,3.061618046776629853e+00
4.057500437299052187e+00,3.172256229066420019e+00
4.062500438013592508e+00,3.023808584308540048e+00
4.067500438728131051e+00,2.900883360769739738e+00
4.072500439442671372e+00,2.949203288424541824e+00
4.077500440157211692e+00,2.936469836892342755e+00
4.082500440871750236e+00,2.989027033918603138e+00
4.087500441586291444e+00,3.111667373701550332e+00
4.092500442300830876e+00,3.366678447873084679e+00
4.097500443015369420e+00,3.660403004211730149e+00
4.102500443729910629e+00,3.729841729966437924e+00
4.107500444444450061e+00,3.722517753928627826e+00
4.112500445158989493e+00,3.783360191471047074e+00
4.117500445873529813e+00,3.830033734509754595e+00
4.122500446588069245e+00,4.094412040290649202e+00
4.127500447302608677e+00,3.853870456116112564e+00
4.132500448017148997e+00,3.313305062426593395e+00
4.137500448731688429e+00,3.247344586977760628e+00
4.142500449446227861e+00,3.531752992843451011e+00
4.147500450160768182e+00,3.998684605481116705e+00
4.152500450875307614e+00,4.354805450733920225e+00
4.157500451589847934e+00,4.386920696346692239e+00
4.162500452304387366e+00,4.076629193091946490e+00
4.167500453018926798e+00,3.834423816675382568e+00
4.172500453733467118e+00,3.743648987374285753e+00
4.177500454448006550e+00,3.995345640849905067e+00
4.182500455162545983e+00,4.376990241923863323e+00
4.187500455877086303e+00,4.516208163591272751e+00
4.192500456591625735e+00,4.290380620719417948e+00
4.197500457306165167e+00,3.794357072495131433e+00
4.202500458020705487e+00,3.438813376825351042e+00
4.207500458735244919e+00,3.659449788487904698e+00
4.212500459449784351e+00,4.028135978763316416e+00
4.217500460164324672e+00,4.195751611708033124e+00
4.222500460878864104e+00,4.219456852068958597e+00
4.227500461593404424e+00,3.847573957178951787e+00
4.232500462307943856e+00,3.493128536821245689e+00
4.237500463022484176e+00,3.451745061142275972e+00
4.242500463737023608e+00,3.449895151762859768e+00
4.247500464451563040e+00,3.401916624845455317e+00
4.252500465166103361e+00,3.236307436503011559e+00
4.257500465880642793e+00,3.075413182893669273e+00
4.262500466595182225e+00,3.087294776098190141e+00
4.267500467309722545e+00,3.067942799682271016e+00
4.272500468024261977e+00,3.079094891603176620e+00
4.277500468738801409e+00,2.987847560708985384e+00
4.282500469453341729e+00,2.799908139956301056e+00
4.287500470167881161e+00,2.877276671266201902e+00
4.292500470882420593e+00,2.788801325539338904e+00
4.297500471596961802e+00,2.991757992588702564e+00
4.302500472311500346e+00,3.371309509745685773e+00
4.307500473026040666e+00,3.760647263511202709e+00
4.312500473740580986e+00,3.820477273629592219e+00
4.317500474455119530e+00,3.611621511535020090e+00
4.322500475169659850e+00,3.481156816455381886e+00
4.327500475884200171e+00,3.540533791982511502e+00
4.332500476598738715e+00,3.738269677252731071e+00
4.337500477313279035e+00,3.903130720079616367e+00
4.342500478027819355e+00,4.132315770787670317e+00
4.347500478742357899e+00,4.460493147532361036e+00
4.352500479456899107e+00,4.490019142243284023e+00
4.357500480171438539e+00,4.383857942580448253e+00
4.362500480885977083e+00,4.250682950379541580e+00
4.367500481600518292e+00,4.259439770013045745e+00
4.372500482315056836e+00,4.713076677221692989e+00
4.377500483029597156e+00,5.179800722712229799e+00
4.382500483744137476e+00,5.381444431455975064e+00
4.387500484458676020e+00,5.321914289096469020e+00
4.392500485173216340e+00,4.987813300623486157e+00
4.397500485887756660e+00,5.046225414278922017e+00
4.402500486602295204e+00,5.239765570463589484e+00
4.407500487316835525e+00,5.364820668612537702e+00
4.412500488031375845e+00,5.596622809457812764e+00
4.417500488745914389e+00,5.670432156435424531e+00
4.422500489460455597e+00,6.034674142791459417e+00
4.427500490174995029e+00,6.489275653298534507e+00
4.432500490889533573e+00,6.775936020425035622e+00
4.437500491604074782e+00,7.169527170893502444e+00
4.442500492318614214e+00,7.375096799583275242e+00
4.447500493033153646e+00,7.378301719213425258e+00
4.452500493747693966e+00,7.415348045962900869e+00
4.457500494462233398e+00,7.735655994463854768e+00
4.462500495176772830e+00,8.124015639594745153e+00
4.467500495891313150e+00,8.503431154831218919e+00
4.472500496605852582e+00,8.722443810364495675e+00
4.477500497320392014e+00,8.750566543485604143e+00
4.482500498034932335e+00,8.862304954748481123e+00
4.487500498749471767e+00,8.860942708429888626e+00
4.492500499464012087e+00,8.935932890021945241e+00
4.497500500178551519e+00,9.107874812940508491e+00
4.502500500893091839e+00,9.402769389687307466e+00
4.507500501607631271e+00,9.922240079184234673e+00
4.512500502322170703e+00,1.021188005480871652e+01
4.517500503036711024e+00,1.029976538805419750e+01
4.522500503751250456e+00,1.046674923805181834e+01
4.527500504465789888e+00,1.083200262311800088e+01
4.532500505180330208e+00,1.103554005558788731e+01
4.537500505894869640e+00,1.136596612391122108e+01
4.542500506609409072e+00,1.199756655717033027e+01
4.547500507323949392e+00,1.255872863529998540e+01
4.552500508038488825e+00,1.263981472430896247e+01
4.557500508753028257e+00,1.261255924899910497e+01
4.562500509467568577e+00,1.274121371255921531e+01
4.567500510182108009e+00,1.280086334701968553e+01
4.572500510896648329e+00,1.315832921292235369e+01
4.577500511611187761e+00,1.347559837516575953e+01
4.582500512325727193e+00,1.375148039720562565e+01
4.587500513040267514e+00,1.404603361064766887e+01
4.592500513754806946e+00,1.443445305476126350e+01
4.597500514469346378e+00,1.470369523240015042e+01
4.602500515183886698e+00,1.491592415498246282e+01
4.607500515898426130e+00,1.530026549294211691e+01
4.612500516612965562e+00,1.545785418320957660e+01
4.617500517327505882e+00,1.558574189997318626e+01
4.622500518042045314e+00,1.589565926176908306e+01
4.627500518756584746e+00,1.634552217919627992e+01
4.632500519471125955e+00,1.682613839794100841e+01
4.637500520185664499e+00,1.754408103399214269e+01
4.642500520900204819e+00,1.826268588815094063e+01
4.647500521614745139e+00,1.890697087967890866e+01
4.652500522329283683e+00,1.931851885885777165e+01
4.657500523043824003e+00,1.963227814415159855e+01
4.662500523758364324e+00,1.997797853788824796e+01
4.667500524472902868e+00,2.032684153139268801e+01
4.672500525187443188e+00,2.081155711168241851e+01
4.677500525901983508e+00,2.116476032402050578e+01
4.682500526616522052e+00,2.130231374267486899e+01
4.687500527331063260e+00,2.153192563503273504e+01
4.692500528045602692e+00,2.180302789134191244e+01
4.697500528760141236e+00,2.215129506773286039e+01
4.702500529474682445e+00,2.285687802884905295e+01
4.707500530189221877e+00,2.340839320571137705e+01
4.712500530903761309e+00,2.394939476374031528e+01
4.717500531618301629e+00,2.435973446608659287e+01
4.722500532332841061e+00,2.483472427134120153e+01
4.727500533047380493e+00,2.571173545467831900e+01
4.732500533761920813e+00,2.628578088329680895e+01
4.737500534476460246e+00,2.669174768248711871e+01
4.742500535190999678e+00,2.685553859310249436e+01
4.747500535905539998e+00,2.690575410051474137e+01
4.752500536620079430e+00,2.748622295224186018e+01
4.757500537334618862e+00,2.832655879862289794e+01
4.762500538049159182e+00,2.936313187255319690e+01
4.767500538763698614e+00,3.020775795437640454e+01
4.772500539478238046e+00,3.095162293248102969e+01
4.777500540192778367e+00,3.146121175842466755e+01
4.782500540907317799e+00,3.191602817354538502e+01
4.787500541621858119e+00,3.257186985549287783e+01
4.792500542336397551e+00,3.325069658233655900e+01
4.797500543050936983e+00,3.415087193183404679e+01
4.802500543765477303e+00,3.479772480491175202e+01
4.807500544480016735e+00,3.530258262883847920e+01
4.812500545194556167e+00,3.570670446273817333e+01
4.817500545909096488e+00,3.646495409333959969e+01
4.822500546623636808e+00,3.766903611900568194e+01
4.827500547338175352e+00,3.889829551032522659e+01
4.832500548052715672e+00,4.018996297148567010e+01
4.837500548767255992e+00,4.153018277234878042e+01
4.842500549481794536e+00,4.235474517036999487e+01
4.847500550196334856e+00,4.326100047314184849e+01
4.852500550910875177e+00,4.410261611851626640e+01
4.857500551625414609e+00,4.508485255355321897e+01
4.862500552339954041e+00,4.594418969940801389e+01
4.867500553054494361e+00,4.686815727364006534e+01
4.872500553769033793e+00,4.793725983908313992e+01
4.877500554483574113e+00,4.909537475310577292e+01
4.882500555198113545e+00,5.039532711882645799e+01
4.887500555912652977e+00,5.165632997070088095e+01
4.892500556627193298e+00,5.307515981167341579e+01
4.897500557341732730e+00,5.443178405462498404e+01
4.902500558056272162e+00,5.586688787788199306e+01
4.907500558770812482e+00,5.736411299478839965e+01
4.912500559485352802e+00,5.919045682366908068e+01
4.917500560199891346e+00,6.108551198982127062e+01
4.922500560914431667e+00,6.261818629625929589e+01
4.927500561628971987e+00,6.407952498937942210e+01
4.932500562343510531e+00,6.569209186251299570e+01
4.937500563058050851e+00,6.708213722471782603e+01
4.942500563772590283e+00,6.864495434612933877e+01
4.947500564487130603e+00,7.039415313963797871e+01
4.952500565201670035e+00,7.236586548319598933e+01
4.957500565916209467e+00,7.467434824719839526e+01
4.962500566630749788e+00,7.659447230819250763e+01
4.967500567345289220e+00,7.832371595711953205e+01
4.972500568059828652e+00,7.968840269232072160e+01
4.977500568774368972e+00,8.134151616098063187e+01
4.982500569488909292e+00,8.331113155564963790e+01
4.987500570203447836e+00,8.517079525295184794e+01
4.992500570917988156e+00,8.728583218666852872e+01
4.997500571632528477e+00,8.934035390441681557e+01
5.002500572347067020e+00,9.110505031573018186e+01
5.007500573061607341e+00,9.315899144990970626e+01
5.012500573776147661e+00,9.545652198730857663e+01
5.017500574490687093e+00,9.771105032186761719e+01
5.022500575205226525e+00,9.958120578771331566e+01
5.027500575919766845e+00,1.012281811884909075e+02
5.032500576634306277e+00,1.031222818696631407e+02
5.037500577348845709e+00,1.049457882673745530e+02
5.042500578063386030e+00,1.065791619631738172e+02
5.047500578777925462e+00,1.075129109184218805e+02
5.052500579492465782e+00,1.079117984587016394e+02
5.057500580207005214e+00,1.083794306761963639e+02
5.062500580921544646e+00,1.087285811367536894e+02
5.067500581636084966e+00,1.090521747666381884e+02
5.072500582350624398e+00,1.090482695420187156e+02
5.077500583065163831e+00,1.084510562448597852e+02
5.082500583779704151e+00,1.080873159824861318e+02
5.087500584494244471e+00,1.075101787325384635e+02
5.092500585208783015e+00,1.069826743683943278e+02
5.097500585923323335e+00,1.063850812920155704e+02
5.102500586637863655e+00,1.053993441585885762e+02
5.107500587352402199e+00,1.037397257320247377e+02
5.112500588066942520e+00,1.018538566896804696e+02
5.117500588781482840e+00,9.997150271223307527e+01
5.122500589496022272e+00,9.815482693488206678e+01
5.127500590210561704e+00,9.634016851183594099e+01
5.132500590925102024e+00,9.470123231360793170e+01
5.137500591639641456e+00,9.293369586063960242e+01
5.142500592354181776e+00,9.119527279989608815e+01
5.147500593068720320e+00,8.923919679161411977e+01
5.152500593783260641e+00,8.705924104058203739e+01
5.157500594497800961e+00,8.436011624538991782e+01
5.162500595212339505e+00,8.186340931916237196e+01
5.167500595926879825e+00,7.972408729583725062e+01
5.172500596641420145e+00,7.775013233996270401e+01
5.177500597355959577e+00,7.594947778188173970e+01
5.182500598070499009e+00,7.418427447518354256e+01
5.187500598785039330e+00,7.196681975181155622e+01
5.192500599499578762e+00,7.009316337912258632e+01
5.197500600214118194e+00,6.830399623179130231e+01
5.202500600928658514e+00,6.622782656137036383e+01
5.207500601643197946e+00,6.432595680295884222e+01
5.212500602357738266e+00,6.221175847757427846e+01
5.217500603072277698e+00,6.039670490702633288e+01
5.222500603786817130e+00,5.861950329402014859e+01
5.227500604501357451e+00,5.672478734913909193e+01
5.232500605215896883e+00,5.515704429282573074e+01
5.237500605930436315e+00,5.337028282415809599e+01
5.242500606644976635e+00,5.106961026931594461e+01
5.247500607359516955e+00,4.877309171246599817e+01
5.252500608074055499e+00,4.688834911688365992e+01
5.257500608788595819e+00,4.563910551443331087e+01
5.262500609503136140e+00,4.423443549387525309e+01
5.267500610217674684e+00,4.287309869698668763e+01
5.272500610932215004e+00,4.135022927171303309e+01
5.277500611646755324e+00,3.985259344055373276e+01
5.282500612361294756e+00,3.857116884629118658e+01
5.287500613075834188e+00,3.721396193483036541e+01
5.292500613790374508e+00,3.568981532826938974e+01
5.297500614504913941e+00,3.427735313742698509e+01
5.302500615219453373e+00,3.296070483882135704e+01
5.307500615933993693e+00,3.129803554813133815e+01
5.312500616648533125e+00,3.004068664522310428e+01
5.317500617363073445e+00,2.898122875269137921e+01
5.322500618077612877e+00,2.794442853275688776e+01
5.327500618792152309e+00,2.679454238846670933e+01
5.332500619506692630e+00,2.560767974496576471e+01
5.337500620221232062e+00,2.431001716085074804e+01
5.342500620935771494e+00,2.315176683405508129e+01
5.347500621650311814e+00,2.212130013702756060e+01
5.352500622364851246e+00,2.116878042925679893e+01
5.357500623079390678e+00,2.046919406315640799e+01
5.362500623793930998e+00,1.958717582353972375e+01
5.367500624508470430e+00,1.862358485537890829e+01
5.372500625223009862e+00,1.759953786695427880e+01
5.377500625937550183e+00,1.659425703026772680e+01
5.382500626652089615e+00,1.555802774473693262e+01
5.387500627366629935e+00,1.459372329542350144e+01
5.392500628081169367e+00,1.371217594680553020e+01
5.397500628795708799e+00,1.300731732365886728e+01
5.402500629510249119e+00,1.241588300092553254e+01
5.407500630224788551e+00,1.168942788459406756e+01
5.412500630939327984e+00,1.087369632891062565e+01
5.417500631653868304e+00,9.887204900073129465e+00
5.422500632368408624e+00,8.891542669221962569e+00
5.427500633082947168e+00,7.808613644103616025e+00
5.432500633797487488e+00,7.186359425342118357e+00
5.437500634512027808e+00,6.743345388101829485e+00
5.442500635226567240e+00,6.124559021952393323e+00
5.447500635941106673e+00,5.600018329330225697e+00
5.452500636655646993e+00,5.090864354853181339e+00
5.457500637370186425e+00,4.399707865033690268e+00
5.462500638084725857e+00,4.091519240875072683e+00
5.467500638799266177e+00,3.734168028675583173e+00
5.472500639513805609e+00,3.305069668565295160e+00
5.477500640228345929e+00,2.914970894917189526e+00
5.482500640942885362e+00,2.410641386757447435e+00
5.487500641657424794e+00,1.722194324430290635e+00
5.492500642371965114e+00,1.109515832975034755e+00
5.497500643086504546e+00,6.199676188657576859e-01
