1.502500072169232093e+00,8.329485832160230530e+00
1.507500072883772191e+00,9.265446668861727630e+00
1.512500073598311845e+00,1.088665471276169683e+01
1.517500074312851721e+00,1.250115821888260825e+01
1.522500075027391375e+00,1.432902294288510348e+01
1.527500075741931251e+00,1.600867980258260559e+01
1.532500076456470905e+00,1.691568098661781505e+01
1.537500077171010782e+00,1.704044654155336502e+01
1.542500077885550436e+00,1.689784079285050211e+01
1.547500078600090090e+00,1.747846629504618932e+01
1.552500079314630188e+00,1.853504078965033841e+01
1.557500080029169620e+00,1.940579198521510307e+01
1.562500080743709496e+00,1.979366288419146258e+01
1.567500081458249372e+00,1.986097731477417483e+01
1.572500082172789027e+00,1.990247460328754414e+01
1.577500082887328903e+00,2.002716382656296901e+01
1.582500083601868335e+00,2.032064681423685215e+01
1.587500084316408433e+00,2.041585789901415637e+01
1.592500085030948087e+00,2.021230220200823169e+01
1.597500085745487741e+00,1.998482028519401865e+01
1.602500086460027617e+00,1.945292409284684254e+01
1.607500087174567494e+00,1.864661116439140187e+01
1.612500087889107148e+00,1.800646229444691926e+01
1.617500088603646802e+00,1.748465472014322586e+01
1.622500089318186678e+00,1.722843380446346373e+01
1.627500090032726332e+00,1.653693066678329160e+01
1.632500090747266430e+00,1.557621955944023284e+01
1.637500091461805862e+00,1.473252832040827798e+01
1.642500092176345738e+00,1.421935507591058467e+01
1.647500092890885615e+00,1.382917722812572947e+01
1.652500093605425047e+00,1.380326347017830813e+01
1.657500094319965145e+00,1.358011739286712327e+01
1.662500095034504799e+00,1.264221821047385674e+01
1.667500095749044675e+00,1.149581812714313855e+01
1.672500096463584329e+00,1.045716670515821534e+01
1.677500097178123983e+00,9.587386356209776750e+00
1.682500097892663860e+00,9.058347588470553546e+00
1.687500098607203736e+00,8.505208071977449436e+00
1.692500099321743390e+00,7.953811323102797814e+00
1.697500100036283044e+00,7.230507263975823662e+00
1.702500100750823142e+00,6.323358279903004586e+00
1.707500101465362574e+00,5.568845765019091232e+00
1.712500102179902450e+00,5.375350349534585348e+00
1.717500102894442326e+00,5.999793748028935170e+00
1.722500103608981981e+00,6.846314299105642931e+00
1.727500104323521857e+00,7.434162475707239537e+00
1.732500105038061289e+00,7.557826619993647910e+00
1.737500105752601387e+00,7.964767320759165159e+00
1.742500106467141041e+00,8.875986263461982162e+00
1.747500107181680695e+00,1.002966636927720856e+01
1.752500107896220571e+00,1.220467033254556100e+01
1.757500108610760448e+00,1.591231308396561417e+01
1.762500109325300102e+00,2.192654367757586442e+01
1.767500110039839756e+00,3.217524167964995740e+01
1.772500110754379632e+00,4.962400623334053762e+01
1.777500111468919286e+00,7.668670903929842098e+01
1.782500112183459384e+00,1.183469543186803321e+02
1.787500112897998816e+00,1.787749611394024782e+02
1.792500113612538692e+00,2.353781615626742791e+02
1.797500114327078569e+00,2.336645124125421944e+02
1.802500115041618223e+00,1.847172267231381966e+02
1.807500115756158099e+00,1.057669172952698773e+02
1.812500116470697753e+00,5.859177370024497122e+01
1.817500117185237629e+00,3.508576906882080948e+01
1.822500117899777283e+00,2.251769329613944137e+01
1.827500118614316937e+00,1.485775216460217507e+01
1.832500119328856814e+00,1.059665914249535490e+01
1.837500120043396690e+00,8.314422006807376420e+00
1.842500120757936344e+00,6.922347239453586099e+00
1.847500121472475998e+00,6.141342030897703808e+00
1.852500122187016096e+00,5.969931859915448058e+00
1.857500122901555528e+00,5.963160641693662001e+00
1.862500123616095404e+00,6.141007477465052489e+00
1.867500124330635058e+00,6.283735777162405611e+00
1.872500125045175157e+00,6.058113964082167513e+00
1.877500125759714811e+00,6.140950632646706708e+00
1.882500126474254243e+00,6.479897772548213197e+00
1.887500127188794341e+00,7.134667811230258394e+00
1.892500127903333995e+00,7.880610275484229987e+00
1.897500128617873427e+00,8.621217896384848700e+00
1.902500129332413525e+00,9.292789696623799500e+00
1.907500130046953402e+00,1.040953597235221650e+01
1.912500130761493056e+00,1.126710002304974978e+01
1.917500131476032710e+00,1.190563188332509981e+01
1.922500132190572586e+00,1.268040600000807672e+01
1.927500132905112240e+00,1.359519525687693431e+01
1.932500133619652338e+00,1.458556565366438917e+01
1.937500134334191770e+00,1.571925472527595957e+01
1.942500135048731869e+00,1.667618252935073997e+01
1.947500135763271523e+00,1.747397654981671167e+01
1.952500136477810955e+00,1.852684010628809119e+01
1.957500137192351053e+00,1.985902281422551141e+01
1.962500137906890707e+00,2.086516604507818329e+01
1.967500138621430139e+00,2.184021015398491272e+01
1.972500139335970237e+00,2.270821528168011127e+01
1.977500140050510113e+00,2.359606130676985458e+01
1.982500140765049768e+00,2.441544857924219514e+01
1.987500141479589422e+00,2.539903073404178713e+01
1.992500142194129298e+00,2.604432338352989973e+01
1.997500142908669396e+00,2.650680104235465251e+01
2.002500143623208384e+00,2.648267911089635618e+01
2.007500144337748704e+00,2.629079253838813202e+01
2.012500145052288580e+00,2.653604797234601165e+01
2.017500145766828012e+00,2.697850334939391814e+01
2.022500146481367889e+00,2.717182614818113962e+01
2.027500147195907765e+00,2.707752068525445566e+01
2.032500147910447641e+00,2.696336561599713377e+01
2.037500148624987073e+00,2.715561120117399696e+01
2.042500149339526949e+00,2.782837750120290821e+01
2.047500150054066825e+00,2.878377522665891775e+01
2.052500150768606257e+00,3.063577414736062110e+01
2.057500151483146134e+00,3.374315597409986367e+01
2.062500152197686010e+00,3.816389058020195080e+01
2.067500152912225886e+00,4.388056935198147812e+01
2.072500153626765762e+00,4.871196524816747342e+01
2.077500154341305194e+00,4.923985164838035189e+01
2.082500155055845070e+00,4.567179532269256015e+01
2.087500155770384946e+00,3.882592816093983856e+01
2.092500156484924378e+00,3.163933950749213864e+01
2.097500157199464255e+00,2.647679198234118303e+01
2.102500157914004575e+00,2.286289921623904320e+01
2.107500158628544007e+00,2.063556823426256415e+01
2.112500159343083439e+00,1.878004486671255790e+01
2.117500160057623759e+00,1.746577898422077624e+01
2.122500160772163191e+00,1.675424920550051411e+01
2.127500161486702623e+00,1.618496143321607406e+01
2.132500162201242500e+00,1.553930383515125868e+01
2.137500162915782820e+00,1.487436032146388243e+01
2.142500163630322252e+00,1.401564736177232362e+01
2.147500164344861684e+00,1.316569552879798266e+01
2.152500165059402004e+00,1.226556072949540521e+01
2.157500165773941436e+00,1.164725950844001545e+01
2.162500166488480868e+00,1.157261792542720968e+01
2.167500167203021189e+00,1.168746467134036493e+01
2.172500167917561065e+00,1.171627218205924237e+01
2.177500168632100497e+00,1.145471035001617111e+01
2.182500169346640373e+00,1.105150687636773910e+01
2.187500170061180249e+00,1.071166382432983255e+01
2.192500170775719681e+00,1.036607431898983123e+01
2.197500171490259557e+00,9.916243006876754862e+00
2.202500172204799433e+00,9.443789230364131981e+00
2.207500172919339310e+00,8.904660895428605727e+00
2.212500173633879186e+00,8.764724071819557594e+00
2.217500174348418618e+00,8.956153374472307860e+00
2.222500175062958494e+00,9.089712237492335589e+00
2.227500175777497926e+00,9.442973129537676868e+00
2.232500176492037802e+00,9.407003345366319991e+00
2.237500177206577678e+00,9.079901383313767838e+00
2.242500177921117555e+00,8.648266672373040365e+00
2.247500178635657431e+00,8.324821643017799033e+00
2.252500179350196863e+00,8.264335799971775032e+00
2.257500180064736739e+00,8.094387441456717625e+00
2.262500180779277059e+00,7.819294323743633868e+00
2.267500181493816047e+00,7.492904188982038249e+00
2.272500182208355923e+00,7.369656777396642156e+00
2.277500182922896244e+00,7.152844325803869197e+00
2.282500183637435676e+00,6.916242427453596520e+00
2.287500184351975108e+00,6.762923509050210669e+00
2.292500185066515428e+00,6.844116694486842789e+00
2.297500185781055304e+00,7.355301555292214744e+00
2.302500186495594292e+00,7.761855083729130911e+00
2.307500187210134612e+00,7.910166195182398496e+00
2.312500187924674488e+00,7.589250718822938779e+00
2.317500188639213921e+00,6.976582696861100885e+00
2.322500189353753797e+00,6.696077783402529349e+00
2.327500190068293673e+00,6.630745832752211300e+00
2.332500190782833549e+00,6.790305645916760113e+00
2.337500191497372981e+00,6.902737705382378408e+00
2.342500192211912857e+00,6.814033931370488517e+00
2.347500192926452733e+00,6.682686207624271901e+00
2.352500193640992165e+00,6.406444194292646444e+00
2.357500194355532042e+00,6.536316793159016925e+00
2.362500195070071918e+00,6.731741825753488229e+00
2.367500195784611794e+00,6.911556492709280519e+00
2.372500196499151670e+00,7.313872862413063558e+00
2.377500197213691102e+00,7.465773916290174839e+00
2.382500197928230978e+00,7.139948070649211331e+00
2.387500198642770854e+00,6.837507780550140524e+00
2.392500199357310287e+00,6.400202674922638835e+00
2.397500200071850163e+00,6.297498414331812455e+00
2.402500200786390039e+00,6.465993195227042634e+00
2.407500201500929915e+00,6.735229517856794246e+00
2.412500202215469347e+00,6.896663913164275073e+00
2.417500202930009223e+00,6.956901806397922883e+00
2.422500203644549099e+00,7.077516853373197137e+00
2.427500204359088531e+00,7.243416419309767207e+00
2.432500205073628408e+00,7.442742702194209414e+00
2.437500205788168728e+00,7.568209403015373482e+00
2.442500206502708160e+00,7.654925212402133639e+00
2.447500207217247592e+00,7.740928478896933029e+00
2.452500207931787912e+00,7.990234084257451741e+00
2.457500208646327344e+00,8.071678658597761569e+00
2.462500209360866776e+00,7.986191088496070734e+00
2.467500210075407097e+00,7.684651404003602693e+00
2.472500210789946973e+00,7.561970368775575935e+00
2.477500211504486405e+00,7.756802615120761857e+00
2.482500212219026281e+00,7.950313734125359133e+00
2.487500212933566157e+00,8.252685402882605104e+00
2.492500213648105589e+00,8.351186673829602114e+00
2.497500214362645465e+00,8.277416406657494008e+00
2.502500215077185342e+00,8.224350387720051003e+00
2.507500215791725218e+00,8.093887717014922600e+00
2.512500216506264650e+00,7.947564919773526526e+00
2.517500217220804526e+00,7.646967323671731265e+00
2.522500217935344402e+00,7.363586236818093766e+00
2.527500218649883834e+00,7.138328225349198419e+00
2.532500219364423710e+00,7.252791969147949658e+00
2.537500220078963586e+00,7.568227002321805230e+00
2.542500220793503463e+00,8.092702902900384743e+00
2.547500221508043339e+00,8.412933023542905175e+00
2.552500222222582771e+00,8.347716874587604252e+00
2.557500222937122647e+00,8.183261169208492447e+00
2.562500223651662967e+00,8.080375868568637543e+00
2.567500224366201955e+00,8.062999572673561488e+00
2.572500225080741831e+00,8.303721981534692986e+00
2.577500225795282152e+00,8.391087362190774002e+00
2.582500226509821584e+00,8.509953435646139042e+00
2.587500227224361016e+00,8.821435224746267068e+00
2.592500227938901336e+00,9.043196802439808835e+00
2.597500228653441212e+00,9.306934202148624991e+00
2.602500229367980644e+00,9.496632253916118316e+00
2.607500230082520076e+00,9.477263315083746420e+00
2.612500230797060397e+00,9.305419594716511256e+00
2.617500231511599829e+00,9.132999677244242775e+00
2.622500232226139261e+00,9.062585719927540140e+00
2.627500232940679581e+00,9.042035738214224239e+00
2.632500233655219457e+00,9.010174523904140642e+00
2.637500234369758889e+00,9.015781682452995938e+00
2.642500235084298765e+00,9.141572346056364040e+00
2.647500235798838641e+00,9.083695464853917656e+00
2.652500236513378074e+00,8.998382977040023434e+00
2.657500237227917950e+00,9.064938090300302065e+00
2.662500237942457826e+00,9.528551444103413814e+00
2.667500238656997702e+00,9.960188805196366957e+00
2.672500239371537578e+00,9.840544925205506388e+00
2.677500240086077010e+00,9.660354820111081153e+00
2.682500240800616886e+00,9.591627901282492985e+00
2.687500241515156763e+00,9.754188502995816634e+00
2.692500242229696195e+00,1.000663047244859172e+01
2.697500242944236071e+00,9.837705109383932722e+00
2.702500243658775947e+00,9.474567015867364717e+00
2.707500244373315823e+00,9.081046801530590074e+00
2.712500245087855255e+00,8.792990439204800168e+00
2.717500245802395131e+00,9.140897204537452581e+00
2.722500246516935007e+00,9.770256590213250547e+00
2.727500247231474440e+00,1.019313522017688456e+01
2.732500247946014316e+00,1.060412533611872732e+01
2.737500248660554636e+00,1.100680964137899309e+01
2.742500249375094068e+00,1.128404328352462471e+01
2.747500250089633500e+00,1.138694921582833786e+01
2.752500250804173820e+00,1.131181639077919954e+01
2.757500251518713252e+00,1.139258022898138734e+01
2.762500252233252684e+00,1.158860338101908383e+01
2.767500252947793005e+00,1.203243573736961025e+01
2.772500253662332881e+00,1.244613522932615979e+01
2.777500254376872313e+00,1.280539136429837299e+01
2.782500255091412189e+00,1.317799568493745710e+01
2.787500255805952065e+00,1.382955465989925870e+01
2.792500256520491497e+00,1.457566253554597324e+01
2.797500257235031373e+00,1.523926827944114848e+01
2.802500257949571250e+00,1.612754325626701757e+01
2.807500258664111126e+00,1.717464245842421633e+01
2.812500259378650558e+00,1.835228800226104795e+01
2.817500260093190434e+00,1.973556502663836909e+01
2.822500260807730310e+00,2.144139825556158030e+01
2.827500261522270186e+00,2.326621679322863656e+01
2.832500262236809618e+00,2.542466262025084234e+01
2.837500262951349495e+00,2.764627028127807762e+01
2.842500263665889371e+00,3.019029842809186448e+01
2.847500264380429247e+00,3.321798323769621675e+01
2.852500265094968679e+00,3.698232723079775042e+01
2.857500265809508555e+00,4.146078970161499910e+01
2.862500266524048875e+00,4.718438828049539779e+01
2.867500267238588307e+00,5.447756709809539188e+01
2.872500267953127739e+00,6.385931983237395571e+01
2.877500268667668060e+00,7.624707764815764222e+01
2.882500269382207492e+00,9.314335470506864567e+01
2.887500270096746924e+00,1.178078367806851929e+02
2.892500270811286800e+00,1.554230001671352284e+02
2.897500271525826676e+00,2.132846634290214638e+02
2.902500272240366552e+00,3.038829200207167673e+02
2.907500272954905984e+00,4.373415608938945525e+02
2.912500273669446305e+00,6.169197834820108710e+02
2.917500274383985737e+00,8.388002776379100851e+02
2.922500275098525169e+00,1.082784812792132925e+03
2.927500275813065489e+00,1.283186755042864434e+03
2.932500276527604921e+00,1.343546032976348215e+03
2.937500277242144797e+00,1.215666002901363527e+03
2.942500277956684673e+00,9.665703580290136188e+02
2.947500278671224549e+00,6.661031040587624830e+02
2.952500279385763982e+00,4.245492867175959191e+02
2.957500280100304302e+00,2.741763735960569761e+02
2.962500280814843734e+00,1.875949108866224719e+02
2.967500281529383166e+00,1.371413358838010481e+02
2.972500282243923486e+00,1.059257369939905402e+02
2.977500282958462918e+00,8.536810861838648634e+01
2.982500283673002794e+00,7.092970491283904266e+01
2.987500284387542226e+00,6.049017601841399028e+01
2.992500285102082547e+00,5.309570648921828706e+01
2.997500285816621979e+00,4.795944253858351658e+01
3.002500286531161411e+00,4.424258945126382514e+01
3.007500287245701731e+00,4.138937252102545017e+01
3.012500287960241163e+00,3.904665374995136062e+01
3.017500288674781039e+00,3.701568355751260242e+01
3.022500289389320915e+00,3.513442499940413200e+01
3.027500290103860792e+00,3.327770635552013800e+01
3.032500290818400224e+00,3.166023016324027139e+01
3.037500291532940100e+00,3.009939060032650104e+01
3.042500292247479976e+00,2.844746342641042247e+01
3.047500292962019408e+00,2.708910354166880552e+01
3.052500293676559728e+00,2.609646583651431229e+01
3.057500294391099160e+00,2.539781481081502079e+01
3.062500295105639037e+00,2.491293106811463076e+01
3.067500295820178913e+00,2.468998265360073674e+01
3.072500296534718789e+00,2.462805923387122675e+01
3.077500297249258221e+00,2.428503342513408825e+01
3.082500297963798097e+00,2.390981787336352227e+01
3.087500298678337973e+00,2.370942458054582858e+01
3.092500299392877405e+00,2.365011236569148423e+01
3.097500300107417281e+00,2.366685952115977898e+01
3.102500300821957158e+00,2.352658402757549538e+01
3.107500301536497034e+00,2.329896874921263361e+01
3.112500302251036466e+00,2.334513941258290970e+01
3.117500302965576342e+00,2.371741436236681011e+01
3.122500303680116218e+00,2.401971715913799699e+01
3.127500304394655650e+00,2.414204313216913533e+01
3.132500305109195970e+00,2.408971352989112802e+01
3.137500305823735403e+00,2.413645169183644157e+01
3.142500306538275279e+00,2.415119579284663587e+01
3.147500307252815155e+00,2.399000558142165573e+01
3.152500307967354587e+00,2.401705847353639456e+01
3.157500308681894463e+00,2.415311146676731369e+01
3.162500309396434339e+00,2.417130802512537002e+01
3.167500310110974215e+00,2.425052280568189644e+01
3.172500310825513647e+00,2.451451571136618668e+01
3.177500311540053524e+00,2.471729566056200156e+01
3.182500312254593400e+00,2.476994553834032331e+01
3.187500312969132832e+00,2.507674280199125860e+01
3.192500313683672708e+00,2.555356158069469075e+01
3.197500314398212584e+00,2.628012487284667031e+01
3.202500315112752460e+00,2.696088101096393075e+01
3.207500315827291892e+00,2.712931884729022158e+01
3.212500316541832213e+00,2.702318137690292588e+01
3.217500317256371645e+00,2.693010782761507471e+01
3.222500317970911521e+00,2.692951598425202064e+01
3.227500318685451397e+00,2.720717738402311170e+01
3.232500319399990829e+00,2.767039065642040896e+01
3.237500320114530705e+00,2.796763484358882579e+01
3.242500320829070581e+00,2.814320196874211888e+01
3.247500321543610458e+00,2.805449439949859425e+01
3.252500322258149890e+00,2.783409149832692719e+01
3.257500322972690210e+00,2.780668077494561885e+01
3.262500323687229642e+00,2.775047146059398528e+01
3.267500324401769074e+00,2.783384001589894297e+01
3.272500325116308950e+00,2.799704399811611211e+01
3.277500325830848826e+00,2.797459144594728286e+01
3.282500326545388702e+00,2.796244669013924522e+01
3.287500327259928135e+00,2.807194881056727809e+01
3.292500327974468455e+00,2.816284996636392179e+01
3.297500328689007887e+00,2.827855709518826188e+01
3.302500329403547319e+00,2.848139802655771291e+01
3.307500330118087639e+00,2.865279238033497222e+01
3.312500330832627071e+00,2.876943564880832582e+01
3.317500331547166947e+00,2.876474939205434111e+01
3.322500332261706824e+00,2.886320130634391035e+01
3.327500332976246700e+00,2.909239018512818120e+01
3.332500333690786132e+00,2.950271144643045318e+01
3.337500334405326008e+00,3.004061763094011894e+01
3.342500335119865884e+00,3.053204735713620721e+01
3.347500335834405316e+00,3.115975076078825623e+01
3.352500336548945636e+00,3.182281708289247035e+01
3.357500337263485068e+00,3.251143052909117159e+01
3.362500337978024945e+00,3.337532119745310411e+01
3.367500338692564377e+00,3.444471234414345417e+01
3.372500339407104697e+00,3.547010309831034647e+01
3.377500340121644129e+00,3.667150552267685271e+01
3.382500340836183561e+00,3.808887796319402241e+01
3.387500341550723881e+00,3.995971904322300361e+01
3.392500342265263313e+00,4.255000028076631224e+01
3.397500342979803190e+00,4.629268537562040819e+01
3.402500343694343066e+00,5.178074168402457644e+01
3.407500344408882942e+00,5.890019685932969651e+01
3.412500345123422374e+00,6.737438934031985127e+01
3.417500345837962250e+00,7.681160629070626555e+01
3.422500346552502126e+00,8.676517271049584679e+01
3.427500347267041558e+00,9.661220509814074831e+01
3.432500347981581879e+00,1.061260296634691827e+02
3.437500348696121311e+00,1.152698529820207796e+02
3.442500349410661187e+00,1.217809599931342177e+02
3.447500350125201063e+00,1.204382921249835476e+02
3.452500350839740495e+00,1.115150534957907666e+02
3.457500351554280371e+00,9.790856320878424413e+01
3.462500352268820247e+00,8.006319846747186375e+01
3.467500352983360123e+00,6.550866361864632381e+01
3.472500353697899556e+00,5.625742057234481308e+01
3.477500354412439432e+00,5.106167732727618613e+01
3.482500355126979308e+00,4.769985647671626339e+01
3.487500355841518740e+00,4.543915014018534748e+01
3.492500356556058616e+00,4.381390131114017095e+01
3.497500357270598492e+00,4.275264853474322990e+01
3.502500357985138368e+00,4.202127165985200463e+01
3.507500358699677800e+00,4.158435048163141801e+01
3.512500359414218121e+00,4.131942865760339600e+01
3.517500360128757553e+00,4.124610916666790672e+01
3.522500360843297429e+00,4.097130577397825846e+01
3.527500361557837305e+00,4.044250841183469447e+01
3.532500362272376737e+00,4.002844113870378351e+01
3.537500362986916613e+00,3.970317468807837713e+01
3.542500363701456489e+00,3.958601294311904439e+01
3.547500364415996366e+00,3.989434327848630346e+01
3.552500365130535798e+00,4.033542122833944177e+01
3.557500365845075674e+00,4.102977136527471202e+01
3.562500366559615550e+00,4.176961015192102877e+01
3.567500367274154982e+00,4.241435375347145964e+01
3.572500367988694858e+00,4.298198766661869286e+01
3.577500368703234734e+00,4.349644831138522250e+01
3.582500369417774611e+00,4.402177220107574840e+01
3.587500370132314043e+00,4.466755858878963181e+01
3.592500370846854363e+00,4.509785008268858064e+01
3.597500371561393795e+00,4.506345076125984406e+01
3.602500372275933227e+00,4.433024038232883868e+01
3.607500372990473547e+00,4.278961749832495798e+01
3.612500373705012979e+00,4.096548798170192640e+01
3.617500374419552855e+00,3.934638782769809495e+01
3.622500375134092732e+00,3.816755712897753483e+01
3.627500375848632608e+00,3.727184095456419755e+01
3.632500376563172040e+00,3.676618349049385870e+01
3.637500377277712360e+00,3.648692955351526734e+01
3.642500377992251792e+00,3.623551184697726057e+01
3.647500378706791224e+00,3.588831424210604837e+01
3.652500379421331100e+00,3.518188906318835052e+01
3.657500380135870977e+00,3.442184990986561388e+01
3.662500380850410853e+00,3.370482600286288744e+01
3.667500381564950285e+00,3.323651638323349289e+01
3.672500382279490605e+00,3.302837570340341244e+01
3.677500382994030037e+00,3.295828317250879991e+01
3.682500383708569469e+00,3.260760920681144626e+01
3.687500384423109789e+00,3.199815390628958767e+01
3.692500385137649221e+00,3.162080306052126843e+01
3.697500385852189098e+00,3.161335407644372708e+01
3.702500386566728974e+00,3.134846763853653329e+01
3.707500387281268850e+00,3.075501780650211003e+01
3.712500387995808282e+00,3.000824704458614178e+01
3.717500388710348158e+00,2.929758848722912035e+01
3.722500389424888034e+00,2.873312956213698044e+01
3.727500390139427910e+00,2.821991008600718942e+01
3.732500390853967343e+00,2.781497792861750895e+01
3.737500391568507219e+00,2.744223276284787971e+01
3.742500392283047095e+00,2.720101981470503461e+01
3.747500392997586527e+00,2.719767283209586139e+01
3.752500393712126403e+00,2.712470720008451508e+01
3.757500394426666279e+00,2.656678917919714422e+01
3.762500395141205711e+00,2.591583600310127622e+01
3.767500395855746476e+00,2.549925074190934993e+01
3.772500396570285464e+00,2.531017742915457802e+01
3.777500397284825340e+00,2.539113753642226357e+01
3.782500397999365660e+00,2.529502850852895790e+01
3.787500398713904648e+00,2.513755296276247009e+01
3.792500399428444524e+00,2.486156195062244478e+01
3.797500400142984844e+00,2.450539602229616776e+01
3.802500400857523832e+00,2.408649118371005216e+01
3.807500401572063708e+00,2.363040111334845506e+01
3.812500402286604029e+00,2.307362919352453901e+01
3.817500403001143017e+00,2.246501400844880436e+01
3.822500403715683781e+00,2.200866757667034790e+01
3.827500404430223213e+00,2.168351270461448621e+01
3.832500405144762201e+00,2.144234914871242381e+01
3.837500405859302965e+00,2.117788755096711384e+01
3.842500406573842398e+00,2.075460979053860910e+01
3.847500407288382274e+00,2.036588568297975144e+01
3.852500408002922150e+00,1.998502278494527218e+01
3.857500408717461138e+00,1.963241727311788054e+01
3.862500409432001458e+00,1.944073949110168087e+01
3.867500410146541334e+00,1.932854845139604549e+01
3.872500410861080322e+00,1.879658700142931593e+01
3.877500411575620642e+00,1.821315169662511835e+01
3.882500412290160519e+00,1.767609231214055399e+01
3.887500413004699507e+00,1.739699763390046883e+01
3.892500413719240715e+00,1.749556801720814292e+01
3.897500414433779703e+00,1.763425894145495931e+01
3.902500415148318691e+00,1.762179663513541072e+01
3.907500415862859899e+00,1.756344663055335786e+01
3.912500416577398887e+00,1.734642636149851569e+01
3.917500417291938763e+00,1.703663367888674429e+01
3.922500418006479084e+00,1.685542297382681909e+01
3.927500418721018072e+00,1.665421455263629014e+01
3.932500419435557948e+00,1.646283448061046784e+01
3.937500420150097824e+00,1.616364788282066911e+01
3.942500420864637256e+00,1.582774058475536094e+01
3.947500421579177132e+00,1.563099577249590766e+01
3.952500422293717008e+00,1.568331762554419129e+01
3.957500423008256440e+00,1.549191867035477799e+01
3.962500423722797205e+00,1.511152729988526744e+01
3.967500424437336193e+00,1.473404841814175370e+01
3.972500425151876513e+00,1.463354024683707166e+01
3.977500425866416389e+00,1.451622042892290665e+01
3.982500426580955377e+00,1.459996431962093766e+01
3.987500427295495697e+00,1.465004107042420856e+01
3.992500428010035574e+00,1.447471909786247579e+01
3.997500428724574562e+00,1.432223873976892037e+01
4.002500429439114882e+00,1.425846728459094948e+01
4.007500430153654314e+00,1.413787675461173876e+01
4.012500430868193746e+00,1.423312154268251106e+01
4.017500431582734066e+00,1.429085506262902072e+01
4.022500432297273498e+00,1.435121827465695787e+01
4.027500433011812930e+00,1.449399447052587675e+01
4.032500433726354139e+00,1.467918544543465487e+01
4.037500434440892683e+00,1.481408913476047928e+01
4.042500435155433003e+00,1.495599736797669266e+01
4.047500435869973323e+00,1.527401837843319754e+01
4.052500436584511867e+00,1.588657069985680437e+01
4.057500437299052187e+00,1.651952525620885126e+01
4.062500438013592508e+00,1.733964042029333541e+01
4.067500438728131051e+00,1.826690942588072630e+01
4.072500439442671372e+00,1.919443951811319948e+01
4.077500440157211692e+00,2.042787456093918763e+01
4.082500440871750236e+00,2.252618483205077382e+01
4.087500441586291444e+00,2.542190628071017500e+01
4.092500442300830876e+00,2.893819985393372463e+01
4.097500443015369420e+00,3.376480364494466357e+01
4.102500443729910629e+00,4.029912786388968016e+01
4.107500444444450061e+00,4.855409175191391569e+01
4.112500445158989493e+00,5.824335917687869824e+01
4.117500445873529813e+00,6.874190992243632081e+01
4.122500446588069245e+00,7.982618251030993406e+01
4.127500447302608677e+00,9.041421702257133575e+01
4.132500448017148997e+00,1.011432002676693855e+02
4.137500448731688429e+00,1.140576066495853524e+02
4.142500449446227861e+00,1.282518373279998514e+02
4.147500450160768182e+00,1.447736931186974516e+02
4.152500450875307614e+00,1.628289033021727050e+02
4.157500451589847934e+00,1.792827430552829924e+02
4.162500452304387366e+00,1.847823784219646654e+02
4.167500453018926798e+00,1.751448973191054392e+02
4.172500453733467118e+00,1.561409704252259871e+02
4.177500454448006550e+00,1.288975001062760839e+02
4.182500455162545983e+00,9.765055010314637229e+01
4.187500455877086303e+00,7.134571784613126511e+01
4.192500456591625735e+00,5.192820403502162208e+01
4.197500457306165167e+00,3.869120131099089122e+01
4.202500458020705487e+00,3.021781930543340877e+01
4.207500458735244919e+00,2.435474797005593928e+01
4.212500459449784351e+00,2.012158985228040819e+01
4.217500460164324672e+00,1.702937205814373556e+01
4.222500460878864104e+00,1.438343321520108020e+01
4.227500461593404424e+00,1.212332825769544797e+01
4.232500462307943856e+00,1.015287603398707006e+01
4.237500463022484176e+00,8.962290654222783814e+00
4.242500463737023608e+00,8.150062593863481197e+00
4.247500464451563040e+00,7.413833937835079269e+00
4.252500465166103361e+00,6.864820987960513321e+00
4.257500465880642793e+00,6.285626762971560311e+00
4.262500466595182225e+00,5.751792512191400419e+00
4.267500467309722545e+00,5.323112412811497052e+00
4.272500468024261977e+00,4.934563745681373348e+00
4.277500468738801409e+00,4.819311045712765917e+00
4.282500469453341729e+00,4.891671189778321605e+00
4.287500470167881161e+00,4.736676385004841450e+00
4.292500470882420593e+00,4.359768993001523540e+00
4.297500471596961802e+00,4.022769547448774574e+00
4.302500472311500346e+00,3.672435103717191396e+00
4.307500473026040666e+00,3.546324717394156778e+00
4.312500473740580986e+00,3.573312139606230176e+00
4.317500474455119530e+00,3.426594850231595046e+00
4.322500475169659850e+00,3.320630093067222788e+00
4.327500475884200171e+00,3.037349475447115310e+00
4.332500476598738715e+00,2.718547884268161852e+00
4.337500477313279035e+00,2.476631777016223168e+00
4.342500478027819355e+00,2.121242716930851202e+00
4.347500478742357899e+00,1.750749072233645620e+00
4.352500479456899107e+00,1.504260176295645124e+00
4.357500480171438539e+00,1.498638046394887624e+00
4.362500480885977083e+00,1.610784981382380465e+00
4.367500481600518292e+00,1.650250983567900676e+00
4.372500482315056836e+00,1.703227899352668828e+00
4.377500483029597156e+00,1.558361186817364796e+00
4.382500483744137476e+00,1.384636878621961387e+00
4.387500484458676020e+00,1.531766103497830045e+00
4.392500485173216340e+00,1.651614529619052973e+00
4.397500485887756660e+00,1.874593966170266413e+00
4.402500486602295204e+00,1.797516367265131976e+00
4.407500487316835525e+00,1.504864583905771269e+00
4.412500488031375845e+00,9.149227350869750808e-01
4.417500488745914389e+00,3.790498894446727718e-01
4.422500489460455597e+00,2.622769890925269465e-01
4.427500490174995029e+00,4.789058986534655560e-02
4.432500490889533573e+00,0.000000000000000000e+00
4.437500491604074782e+00,2.954952879555321488e-01
4.442500492318614214e+00,7.506097824212361047e-01
4.447500493033153646e+00,1.263150296936203176e+00
4.452500493747693966e+00,1.904568663098018533e+00
4.457500494462233398e+00,2.363382140730550418e+00
4.462500495176772830e+00,2.699628984295429746e+00
4.467500495891313150e+00,3.465168735870975070e+00
4.472500496605852582e+00,4.649055760315150110e+00
4.477500497320392014e+00,6.376757995274090263e+00
4.482500498034932335e+00,8.749451384784777019e+00
4.487500498749471767e+00,1.144658945935935890e+01
4.492500499464012087e+00,1.437711793560362139e+01
4.497500500178551519e+00,1.754663169864591055e+01
4.502500500893091839e+00,2.080761894277111423e+01
4.507500501607631271e+00,2.374544749955197176e+01
4.512500502322170703e+00,2.618126400777958906e+01
4.517500503036711024e+00,2.819784230214230547e+01
4.522500503751250456e+00,2.911751920424916307e+01
4.527500504465789888e+00,2.864883148552763714e+01
4.532500505180330208e+00,2.647767187309165138e+01
4.537500505894869640e+00,2.302455223334197854e+01
4.542500506609409072e+00,1.860280669697226585e+01
4.547500507323949392e+00,1.411900059452574396e+01
4.552500508038488825e+00,1.042373001694863888e+01
4.557500508753028257e+00,7.513770253094889995e+00
4.562500509467568577e+00,5.543123153018314042e+00
4.567500510182108009e+00,4.114917762743743879e+00
4.572500510896648329e+00,3.208381759819303625e+00
4.577500511611187761e+00,2.736061912310390198e+00
4.582500512325727193e+00,2.571961285838142430e+00
4.587500513040267514e+00,2.751307309988703764e+00
4.592500513754806946e+00,3.316499043949306724e+00
4.597500514469346378e+00,4.050841307374128064e+00
4.602500515183886698e+00,4.769010988981335686e+00
4.607500515898426130e+00,5.542093667657240985e+00
4.612500516612965562e+00,6.281964715978290315e+00
4.617500517327505882e+00,6.979082268964930336e+00
4.622500518042045314e+00,7.596041911590873497e+00
4.627500518756584746e+00,8.261271747149521616e+00
4.632500519471125955e+00,9.016285815225842271e+00
4.637500520185664499e+00,9.945994150300805359e+00
4.642500520900204819e+00,1.083531899269240739e+01
4.647500521614745139e+00,1.099985274754772036e+01
4.652500522329283683e+00,1.047692854148942843e+01
4.657500523043824003e+00,9.629044294888331024e+00
4.662500523758364324e+00,8.595553395696811094e+00
4.667500524472902868e+00,7.616822414300088440e+00
4.672500525187443188e+00,6.849294580084006157e+00
4.677500525901983508e+00,6.242534459175658412e+00
4.682500526616522052e+00,5.752301684918393221e+00
4.687500527331063260e+00,5.452947198113292870e+00
4.692500528045602692e+00,5.170073159132698493e+00
4.697500528760141236e+00,5.108493153005326803e+00
4.702500529474682445e+00,5.452635021454284470e+00
4.707500530189221877e+00,5.857690765245195053e+00
4.712500530903761309e+00,6.452088468021599965e+00
4.717500531618301629e+00,6.727079698653653850e+00
4.722500532332841061e+00,6.899837655775513667e+00
4.727500533047380493e+00,7.034062636541193569e+00
4.732500533761920813e+00,7.126041606943317674e+00
4.737500534476460246e+00,7.398227303379826481e+00
4.742500535190999678e+00,7.690595654536309667e+00
4.747500535905539998e+00,8.049207793109530940e+00
4.752500536620079430e+00,8.399031100735783184e+00
4.757500537334618862e+00,8.741601561509924068e+00
4.762500538049159182e+00,9.465479084259015963e+00
4.767500538763698614e+00,1.042489130137585107e+01
4.772500539478238046e+00,1.142783171335315728e+01
4.777500540192778367e+00,1.207993175910337413e+01
4.782500540907317799e+00,1.263300207573087164e+01
4.787500541621858119e+00,1.337187331884717878e+01
4.792500542336397551e+00,1.394255168015558866e+01
4.797500543050936983e+00,1.474208094800508206e+01
4.802500543765477303e+00,1.535909426520453280e+01
4.807500544480016735e+00,1.605413029113964285e+01
4.812500545194556167e+00,1.694554628771714988e+01
4.817500545909096488e+00,1.768014189866232755e+01
4.822500546623636808e+00,1.871263912999648937e+01
4.827500547338175352e+00,1.958497922504182043e+01
4.832500548052715672e+00,2.047508975426904954e+01
4.837500548767255992e+00,2.171348617780290624e+01
4.842500549481794536e+00,2.270264440402036143e+01
4.847500550196334856e+00,2.375922491065136910e+01
4.852500550910875177e+00,2.478695482485875345e+01
4.857500551625414609e+00,2.575776805996537178e+01
4.862500552339954041e+00,2.650410267873786552e+01
4.867500553054494361e+00,2.735528395003080959e+01
4.872500553769033793e+00,2.856162713200023973e+01
4.877500554483574113e+00,3.014822775530592480e+01
4.882500555198113545e+00,3.184446601764904017e+01
4.887500555912652977e+00,3.327699994784103410e+01
4.892500556627193298e+00,3.504520485893129944e+01
4.897500557341732730e+00,3.669273096540041479e+01
4.902500558056272162e+00,3.843977267027423750e+01
4.907500558770812482e+00,4.031838350653407588e+01
4.912500559485352802e+00,4.245076593204350957e+01
4.917500560199891346e+00,4.472563241353793728e+01
4.922500560914431667e+00,4.683128648131605587e+01
4.927500561628971987e+00,4.883695207494645274e+01
4.932500562343510531e+00,5.075194712725868840e+01
4.937500563058050851e+00,5.269563595692454783e+01
4.942500563772590283e+00,5.508862189541514454e+01
4.947500564487130603e+00,5.742847360536609358e+01
4.952500565201670035e+00,5.930409885987768348e+01
4.957500565916209467e+00,6.128438589994107133e+01
4.962500566630749788e+00,6.303578766295947844e+01
4.967500567345289220e+00,6.525472534720353224e+01
4.972500568059828652e+00,6.743544119502109879e+01
4.977500568774368972e+00,6.960135225260535208e+01
4.982500569488909292e+00,7.247594880749932145e+01
4.987500570203447836e+00,7.564282856828782542e+01
4.992500570917988156e+00,7.926404993608684890e+01
4.997500571632528477e+00,8.325600480728019193e+01
5.002500572347067020e+00,8.796461998954140427e+01
5.007500573061607341e+00,9.303681716277287705e+01
5.012500573776147661e+00,9.907215472481516372e+01
5.017500574490687093e+00,1.068096258871537430e+02
5.022500575205226525e+00,1.170582311846880543e+02
5.027500575919766845e+00,1.306355771085475226e+02
5.032500576634306277e+00,1.470291309889096283e+02
5.037500577348845709e+00,1.666954763660968410e+02
5.042500578063386030e+00,1.902128703636267915e+02
5.047500578777925462e+00,2.159781125847013641e+02
5.052500579492465782e+00,2.426698019481483470e+02
5.057500580207005214e+00,2.673382414735796146e+02
5.062500580921544646e+00,2.904468201173353918e+02
5.067500581636084966e+00,3.112301060342044821e+02
5.072500582350624398e+00,3.306994618118043263e+02
5.077500583065163831e+00,3.475807275760519701e+02
5.082500583779704151e+00,3.637707029247644641e+02
5.087500584494244471e+00,3.765771981971905689e+02
5.092500585208783015e+00,3.782867834974538823e+02
5.097500585923323335e+00,3.609232725812751141e+02
5.102500586637863655e+00,3.296661188520685073e+02
5.107500587352402199e+00,2.886795169234470677e+02
5.112500588066942520e+00,2.395723025215683606e+02
5.117500588781482840e+00,1.951850008249823532e+02
5.122500589496022272e+00,1.620407236814326666e+02
5.127500590210561704e+00,1.382805333773906113e+02
5.132500590925102024e+00,1.217645473743864954e+02
5.137500591639641456e+00,1.097781761019828650e+02
5.142500592354181776e+00,1.014199403405901307e+02
5.147500593068720320e+00,9.495629910232815973e+01
5.152500593783260641e+00,8.976818283415781252e+01
5.157500594497800961e+00,8.542365577139582911e+01
5.162500595212339505e+00,8.138445890647216174e+01
5.167500595926879825e+00,7.785308640494679366e+01
5.172500596641420145e+00,7.452251094730979730e+01
5.177500597355959577e+00,7.157160609226713177e+01
5.182500598070499009e+00,6.919566385486916715e+01
5.187500598785039330e+00,6.689454167916829874e+01
5.192500599499578762e+00,6.471375130541127874e+01
5.197500600214118194e+00,6.233820877004279737e+01
5.202500600928658514e+00,5.997049978656747271e+01
5.207500601643197946e+00,5.773218589789581756e+01
5.212500602357738266e+00,5.549144119509946904e+01
5.217500603072277698e+00,5.317961115530459892e+01
5.222500603786817130e+00,5.128053148934878891e+01
5.227500604501357451e+00,4.977577960663177237e+01
5.232500605215896883e+00,4.803371270105384383e+01
5.237500605930436315e+00,4.637886472367557644e+01
5.242500606644976635e+00,4.467870785732998229e+01
5.247500607359516955e+00,4.318648698928296881e+01
5.252500608074055499e+00,4.203923606865697593e+01
5.257500608788595819e+00,4.064449685643501198e+01
5.262500609503136140e+00,3.909242830046326844e+01
5.267500610217674684e+00,3.788908290264180323e+01
5.272500610932215004e+00,3.675987351580192808e+01
5.277500611646755324e+00,3.559302427144444891e+01
5.282500612361294756e+00,3.423488918325824670e+01
5.287500613075834188e+00,3.309136205923152829e+01
5.292500613790374508e+00,3.202872489032824888e+01
5.297500614504913941e+00,3.092644326064498728e+01
5.302500615219453373e+00,2.979880941382322135e+01
5.307500615933993693e+00,2.843575035851802113e+01
5.312500616648533125e+00,2.732107127660589185e+01
5.317500617363073445e+00,2.616022651928068399e+01
5.322500618077612877e+00,2.512879372814973067e+01
5.327500618792152309e+00,2.429975044656606542e+01
5.332500619506692630e+00,2.404746581884899115e+01
5.337500620221232062e+00,2.415936440864629731e+01
5.342500620935771494e+00,2.454124846456244313e+01
5.347500621650311814e+00,2.488252008812980876e+01
5.352500622364851246e+00,2.528716267912403737e+01
5.357500623079390678e+00,2.574011056447278634e+01
5.362500623793930998e+00,2.617392990646243334e+01
5.367500624508470430e+00,2.678400424961353110e+01
5.372500625223009862e+00,2.762347470623370782e+01
5.377500625937550183e+00,2.864291280798039452e+01
5.382500626652089615e+00,2.992799140430133775e+01
5.387500627366629935e+00,3.097713358821886231e+01
5.392500628081169367e+00,3.175214135844220209e+01
5.397500628795708799e+00,3.197357525804090983e+01
5.402500629510249119e+00,3.152968992132417725e+01
5.407500630224788551e+00,3.031731542149736924e+01
5.412500630939327984e+00,2.834103939957299190e+01
5.417500631653868304e+00,2.540739041398177278e+01
5.422500632368408624e+00,2.210204130971470704e+01
5.427500633082947168e+00,1.869682215778112777e+01
5.432500633797487488e+00,1.581491190559984261e+01
5.437500634512027808e+00,1.351546362114169142e+01
5.442500635226567240e+00,1.174383032301420826e+01
5.447500635941106673e+00,1.052117069334968846e+01
5.452500636655646993e+00,9.594961773122179238e+00
5.457500637370186425e+00,9.031558776604470040e+00
5.462500638084725857e+00,8.700020774962183623e+00
5.467500638799266177e+00,8.403458352507470863e+00
5.472500639513805609e+00,7.837529700450033943e+00
5.477500640228345929e+00,7.165025577839116977e+00
5.482500640942885362e+00,6.430664233438847077e+00
5.487500641657424794e+00,6.073969823700394954e+00
5.492500642371965114e+00,5.846020459638964439e+00
5.497500643086504546e+00,5.759765589649646245e+00
