1.502500072169232093e+00,4.528225155051586626e+00
1.507500072883772191e+00,6.339097524731243993e+00
1.512500073598311845e+00,7.835878939621068184e+00
1.517500074312851721e+00,9.153066041100771599e+00
1.522500075027391375e+00,1.073155031890030386e+01
1.527500075741931251e+00,1.202683957342287613e+01
1.532500076456470905e+00,1.325283235605991194e+01
1.537500077171010782e+00,1.456980627618008839e+01
1.542500077885550436e+00,1.570380279199451934e+01
1.547500078600090090e+00,1.637478885639939108e+01
1.552500079314630188e+00,1.666823897249815900e+01
1.557500080029169620e+00,1.730643648693671821e+01
1.562500080743709496e+00,1.816156565426632596e+01
1.567500081458249372e+00,1.848407469695285954e+01
1.572500082172789027e+00,1.830694218526247141e+01
1.577500082887328903e+00,1.812240435421887241e+01
1.582500083601868335e+00,1.828555009592577107e+01
1.587500084316408433e+00,1.822702850030771060e+01
1.592500085030948087e+00,1.826625078021646686e+01
1.597500085745487741e+00,1.823089712778943294e+01
1.602500086460027617e+00,1.804657737901720793e+01
1.607500087174567494e+00,1.808308347481317924e+01
1.612500087889107148e+00,1.833410749788919247e+01
1.617500088603646802e+00,1.835590135966401704e+01
1.622500089318186678e+00,1.854410177002466753e+01
1.627500090032726332e+00,1.819165261885399332e+01
1.632500090747266430e+00,1.781320684941118770e+01
1.637500091461805862e+00,1.752732862435192374e+01
1.642500092176345738e+00,1.698459392892880260e+01
1.647500092890885615e+00,1.624182764848529814e+01
1.652500093605425047e+00,1.568846466908036064e+01
1.657500094319965145e+00,1.509559164187459146e+01
1.662500095034504799e+00,1.498691867886111595e+01
1.667500095749044675e+00,1.474849006198093093e+01
1.672500096463584329e+00,1.370378801836096727e+01
1.677500097178123983e+00,1.299334088980731394e+01
1.682500097892663860e+00,1.288514795241803768e+01
1.687500098607203736e+00,1.312541795663281619e+01
1.692500099321743390e+00,1.355566508889944544e+01
1.697500100036283044e+00,1.343476098777148309e+01
1.702500100750823142e+00,1.263378949413402097e+01
1.707500101465362574e+00,1.142080618633809763e+01
1.712500102179902450e+00,1.038835914556875650e+01
1.717500102894442326e+00,9.400388383084532506e+00
1.722500103608981981e+00,8.984468284808087901e+00
1.727500104323521857e+00,8.879628668972088690e+00
1.732500105038061289e+00,8.658303040810380935e+00
1.737500105752601387e+00,8.291331046252480519e+00
1.742500106467141041e+00,8.387002673452798263e+00
1.747500107181680695e+00,8.857623206066364219e+00
1.752500107896220571e+00,9.480700979055256994e+00
1.757500108610760448e+00,1.019408288820187636e+01
1.762500109325300102e+00,1.097562359083423189e+01
1.767500110039839756e+00,1.266761788995262350e+01
1.772500110754379632e+00,1.459185201465436421e+01
1.777500111468919286e+00,1.608088414841967051e+01
1.782500112183459384e+00,1.645723145136048515e+01
1.787500112897998816e+00,1.579600434791478847e+01
1.792500113612538692e+00,1.507502250382344755e+01
1.797500114327078569e+00,1.484879554902875043e+01
1.802500115041618223e+00,1.506776747228252589e+01
1.807500115756158099e+00,1.522071165035686136e+01
1.812500116470697753e+00,1.542460512514003312e+01
1.817500117185237629e+00,1.638169038057691296e+01
1.822500117899777283e+00,1.843025660187601034e+01
1.827500118614316937e+00,2.075572977245650463e+01
1.832500119328856814e+00,2.240287971410634782e+01
1.837500120043396690e+00,2.256491311332371197e+01
1.842500120757936344e+00,2.084281190884138368e+01
1.847500121472475998e+00,1.831564580010865484e+01
1.852500122187016096e+00,1.579920873024281036e+01
1.857500122901555528e+00,1.409458456806413551e+01
1.862500123616095404e+00,1.324605116890734280e+01
1.867500124330635058e+00,1.289236822436390639e+01
1.872500125045175157e+00,1.247911857869422647e+01
1.877500125759714811e+00,1.245514988691235203e+01
1.882500126474254243e+00,1.293056412430991031e+01
1.887500127188794341e+00,1.350221808218873321e+01
1.892500127903333995e+00,1.421392845331757826e+01
1.897500128617873427e+00,1.505445767899374232e+01
1.902500129332413525e+00,1.644008841903593066e+01
1.907500130046953402e+00,1.809978591229111089e+01
1.912500130761493056e+00,1.986056785656319335e+01
1.917500131476032710e+00,2.197019728648064074e+01
1.922500132190572586e+00,2.354954464071164466e+01
1.927500132905112240e+00,2.442452746579385803e+01
1.932500133619652338e+00,2.495643268822254868e+01
1.937500134334191770e+00,2.533937145479626452e+01
1.942500135048731869e+00,2.555526571114785384e+01
1.947500135763271523e+00,2.530905938955231704e+01
1.952500136477810955e+00,2.451315445015575278e+01
1.957500137192351053e+00,2.412728515453363798e+01
1.962500137906890707e+00,2.423575806181332837e+01
1.967500138621430139e+00,2.487490564775453095e+01
1.972500139335970237e+00,2.554059363467814592e+01
1.977500140050510113e+00,2.601356889748035428e+01
1.982500140765049768e+00,2.650438744768769084e+01
1.987500141479589422e+00,2.711004896039599998e+01
1.992500142194129298e+00,2.748129414292515094e+01
1.997500142908669396e+00,2.744784888073610318e+01
2.002500143623208384e+00,2.736543962350259562e+01
2.007500144337748704e+00,2.718882195470092711e+01
2.012500145052288580e+00,2.708582478612044042e+01
2.017500145766828012e+00,2.678833302886226875e+01
2.022500146481367889e+00,2.627075439512537969e+01
2.027500147195907765e+00,2.603413805538485803e+01
2.032500147910447641e+00,2.616605013144038594e+01
2.037500148624987073e+00,2.620037594720440666e+01
2.042500149339526949e+00,2.617536446692224672e+01
2.047500150054066825e+00,2.602086584855862839e+01
2.052500150768606257e+00,2.568327041313324344e+01
2.057500151483146134e+00,2.522136436203817311e+01
2.062500152197686010e+00,2.442281537710249495e+01
2.067500152912225886e+00,2.346283351356288449e+01
2.072500153626765762e+00,2.249486944648776898e+01
2.077500154341305194e+00,2.167429611557736280e+01
2.082500155055845070e+00,2.079503592654486965e+01
2.087500155770384946e+00,2.019437642899998764e+01
2.092500156484924378e+00,1.966684971497812739e+01
2.097500157199464255e+00,1.908715722756943478e+01
2.102500157914004575e+00,1.922047249917687850e+01
2.107500158628544007e+00,1.926461644831471176e+01
2.112500159343083439e+00,1.908977295955543241e+01
2.117500160057623759e+00,1.901235363334473050e+01
2.122500160772163191e+00,1.861839256505999174e+01
2.127500161486702623e+00,1.766576802831588111e+01
2.132500162201242500e+00,1.590988607227973262e+01
2.137500162915782820e+00,1.382722178495322396e+01
2.142500163630322252e+00,1.206301216773294982e+01
2.147500164344861684e+00,1.069959720328211006e+01
2.152500165059402004e+00,9.822734556166778930e+00
2.157500165773941436e+00,8.921593472663573721e+00
2.162500166488480868e+00,8.092032371928894463e+00
2.167500167203021189e+00,7.355690646105983888e+00
2.172500167917561065e+00,6.885940811949296858e+00
2.177500168632100497e+00,6.632888513969817268e+00
2.182500169346640373e+00,6.212380095893706766e+00
2.187500170061180249e+00,5.755306802940083344e+00
2.192500170775719681e+00,5.140209765304916800e+00
2.197500171490259557e+00,4.555474825356327528e+00
2.202500172204799433e+00,4.179416769083218242e+00
2.207500172919339310e+00,3.919811799694059573e+00
2.212500173633879186e+00,4.052477862737532632e+00
2.217500174348418618e+00,4.308799062981677253e+00
2.222500175062958494e+00,4.233910481646091739e+00
2.227500175777497926e+00,3.741904477971104370e+00
2.232500176492037802e+00,3.547654422391246953e+00
2.237500177206577678e+00,3.373113527328314376e+00
2.242500177921117555e+00,3.799609771698726490e+00
2.247500178635657431e+00,4.272270952339397354e+00
2.252500179350196863e+00,4.762744413132793397e+00
2.257500180064736739e+00,5.192048610036067657e+00
2.262500180779277059e+00,5.355621941700519528e+00
2.267500181493816047e+00,5.231184080059165353e+00
2.272500182208355923e+00,4.505530406350828798e+00
2.277500182922896244e+00,3.778389435391716233e+00
2.282500183637435676e+00,3.069624966379592479e+00
2.287500184351975108e+00,2.286826417260385824e+00
2.292500185066515428e+00,1.747342518438927073e+00
2.297500185781055304e+00,1.505765445912288669e+00
2.302500186495594292e+00,1.524676673124588433e+00
2.307500187210134612e+00,1.746088623573484711e+00
2.312500187924674488e+00,1.805952729637056109e+00
2.317500188639213921e+00,1.748728526529248484e+00
2.322500189353753797e+00,1.715921252087980520e+00
2.327500190068293673e+00,1.527014466064485987e+00
2.332500190782833549e+00,1.568080892044292796e+00
2.337500191497372981e+00,1.621097605043075873e+00
2.342500192211912857e+00,2.051812244468010249e+00
2.347500192926452733e+00,2.399617283692748515e+00
2.352500193640992165e+00,2.824418928514376148e+00
2.357500194355532042e+00,3.263833164021548328e+00
2.362500195070071918e+00,3.694538295580059639e+00
2.367500195784611794e+00,3.950603808151470275e+00
2.372500196499151670e+00,3.784433971683426989e+00
2.377500197213691102e+00,3.321998555850029788e+00
2.382500197928230978e+00,2.742154120941279416e+00
2.387500198642770854e+00,2.535066871229616936e+00
2.392500199357310287e+00,2.560714854016566733e+00
2.397500200071850163e+00,2.882536643032779011e+00
2.402500200786390039e+00,3.031560978846698617e+00
2.407500201500929915e+00,3.013120637767485732e+00
2.412500202215469347e+00,2.921049210882756597e+00
2.417500202930009223e+00,2.949705031513303766e+00
2.422500203644549099e+00,3.176411362411670325e+00
2.427500204359088531e+00,3.556237891535317885e+00
2.432500205073628408e+00,3.907657471939046445e+00
2.437500205788168728e+00,4.047738994461383299e+00
2.442500206502708160e+00,4.082705250624087512e+00
2.447500207217247592e+00,4.138249096296078733e+00
2.452500207931787912e+00,4.403967046976106303e+00
2.457500208646327344e+00,4.772275294933990608e+00
2.462500209360866776e+00,5.074402142348390043e+00
2.467500210075407097e+00,5.451603823097059376e+00
2.472500210789946973e+00,5.892548537421646415e+00
2.477500211504486405e+00,6.088541062745207455e+00
2.482500212219026281e+00,6.051625782442386026e+00
2.487500212933566157e+00,6.043846941153276475e+00
2.492500213648105589e+00,6.375191761409553237e+00
2.497500214362645465e+00,6.877101187197354193e+00
2.502500215077185342e+00,7.160068762267883358e+00
2.507500215791725218e+00,7.356896246714427434e+00
2.512500216506264650e+00,7.948590835095103557e+00
2.517500217220804526e+00,8.895956954617929568e+00
2.522500217935344402e+00,9.829751295732762628e+00
2.527500218649883834e+00,1.049489668059760561e+01
2.532500219364423710e+00,1.091243885145257764e+01
2.537500220078963586e+00,1.141503841522819584e+01
2.542500220793503463e+00,1.239980897954535521e+01
2.547500221508043339e+00,1.338102101135763178e+01
2.552500222222582771e+00,1.421806814674988573e+01
2.557500222937122647e+00,1.477571499486492712e+01
2.562500223651662967e+00,1.509169967814244728e+01
2.567500224366201955e+00,1.582522016160879730e+01
2.572500225080741831e+00,1.718891057238613485e+01
2.577500225795282152e+00,1.927898036098480361e+01
2.582500226509821584e+00,2.193477240789684402e+01
2.587500227224361016e+00,2.518517415751801991e+01
2.592500227938901336e+00,2.843022772666802211e+01
2.597500228653441212e+00,3.070669387051850663e+01
2.602500229367980644e+00,3.141464500124470760e+01
2.607500230082520076e+00,3.060454404650704419e+01
2.612500230797060397e+00,2.929899127667016501e+01
2.617500231511599829e+00,2.885161102459045424e+01
2.622500232226139261e+00,2.969970671593586076e+01
2.627500232940679581e+00,3.111404724715185921e+01
2.632500233655219457e+00,3.227036967200922390e+01
2.637500234369758889e+00,3.309990410493719537e+01
2.642500235084298765e+00,3.367981561653328981e+01
2.647500235798838641e+00,3.424864612906139882e+01
2.652500236513378074e+00,3.507905611662675938e+01
2.657500237227917950e+00,3.586164418620018068e+01
2.662500237942457826e+00,3.686702593597368605e+01
2.667500238656997702e+00,3.812994650511370764e+01
2.672500239371537578e+00,4.006045611178433319e+01
2.677500240086077010e+00,4.251596205600384337e+01
2.682500240800616886e+00,4.531435127913198357e+01
2.687500241515156763e+00,4.812537830420700402e+01
2.692500242229696195e+00,4.984978510986587708e+01
2.697500242944236071e+00,5.046396665855257879e+01
2.702500243658775947e+00,5.045713520401272945e+01
2.707500244373315823e+00,5.013872385659203701e+01
2.712500245087855255e+00,4.973833165243064514e+01
2.717500245802395131e+00,4.960793302694690965e+01
2.722500246516935007e+00,5.023783850901293135e+01
2.727500247231474440e+00,5.209205238777911973e+01
2.732500247946014316e+00,5.443651978378591139e+01
2.737500248660554636e+00,5.664796454037974627e+01
2.742500249375094068e+00,5.876488409754171016e+01
2.747500250089633500e+00,6.087808293992617337e+01
2.752500250804173820e+00,6.276485838864260813e+01
2.757500251518713252e+00,6.426595372701132192e+01
2.762500252233252684e+00,6.504996249818731258e+01
2.767500252947793005e+00,6.537068324222906313e+01
2.772500253662332881e+00,6.567506017065846891e+01
2.777500254376872313e+00,6.569388140937343223e+01
2.782500255091412189e+00,6.564401898959829396e+01
2.787500255805952065e+00,6.585138417085909168e+01
2.792500256520491497e+00,6.624653291043415493e+01
2.797500257235031373e+00,6.686338412576742485e+01
2.802500257949571250e+00,6.746049655062302008e+01
2.807500258664111126e+00,6.838908021037383378e+01
2.812500259378650558e+00,6.983243734064217279e+01
2.817500260093190434e+00,7.152147752468312092e+01
2.822500260807730310e+00,7.394678434443267179e+01
2.827500261522270186e+00,7.704364345733051778e+01
2.832500262236809618e+00,8.085769201102584702e+01
2.837500262951349495e+00,8.530917035299887630e+01
2.842500263665889371e+00,8.970763150384732398e+01
2.847500264380429247e+00,9.267131371650356186e+01
2.852500265094968679e+00,9.363919492021136648e+01
2.857500265809508555e+00,9.350203520160465587e+01
2.862500266524048875e+00,9.355058847523366694e+01
2.867500267238588307e+00,9.439174017947556194e+01
2.872500267953127739e+00,9.668999287282883870e+01
2.877500268667668060e+00,1.009589091055924541e+02
2.882500269382207492e+00,1.075111541450545474e+02
2.887500270096746924e+00,1.161531065717689444e+02
2.892500270811286800e+00,1.271060008582473984e+02
2.897500271525826676e+00,1.410640328382710891e+02
2.902500272240366552e+00,1.548541497465086536e+02
2.907500272954905984e+00,1.647754362053944419e+02
2.912500273669446305e+00,1.689127433760631902e+02
2.917500274383985737e+00,1.667333381288107148e+02
2.922500275098525169e+00,1.593906444987052851e+02
2.927500275813065489e+00,1.482837529634587668e+02
2.932500276527604921e+00,1.348631760591830471e+02
2.937500277242144797e+00,1.214668163984860598e+02
2.942500277956684673e+00,1.095353902549667851e+02
2.947500278671224549e+00,9.947699055200354223e+01
2.952500279385763982e+00,9.201517035934881505e+01
2.957500280100304302e+00,8.637592409479742628e+01
2.962500280814843734e+00,8.239446853053698305e+01
2.967500281529383166e+00,7.988539049871275211e+01
2.972500282243923486e+00,7.851337443097094138e+01
2.977500282958462918e+00,7.798878951713828656e+01
2.982500283673002794e+00,7.808175830920987437e+01
2.987500284387542226e+00,7.844762669251861098e+01
2.992500285102082547e+00,7.838117531197929111e+01
2.997500285816621979e+00,7.665701263895192596e+01
3.002500286531161411e+00,7.283502541114876294e+01
3.007500287245701731e+00,6.724386862331618886e+01
3.012500287960241163e+00,6.110822382846066603e+01
3.017500288674781039e+00,5.528830109141358662e+01
3.022500289389320915e+00,5.037618298340657930e+01
3.027500290103860792e+00,4.639675231687823498e+01
3.032500290818400224e+00,4.360392627675952326e+01
3.037500291532940100e+00,4.172830656738102562e+01
3.042500292247479976e+00,4.022275436406317795e+01
3.047500292962019408e+00,3.883169573345236358e+01
3.052500293676559728e+00,3.765496440736836803e+01
3.057500294391099160e+00,3.694626369727336623e+01
3.062500295105639037e+00,3.665015379936113504e+01
3.067500295820178913e+00,3.613352762503393478e+01
3.072500296534718789e+00,3.545987227590569546e+01
3.077500297249258221e+00,3.470186059692713343e+01
3.082500297963798097e+00,3.341937852052257085e+01
3.087500298678337973e+00,3.214762321150391244e+01
3.092500299392877405e+00,3.098703837018410923e+01
3.097500300107417281e+00,2.982084352962817775e+01
3.102500300821957158e+00,2.902890124352467183e+01
3.107500301536497034e+00,2.838072245764789159e+01
3.112500302251036466e+00,2.787219746725401137e+01
3.117500302965576342e+00,2.740552755806714913e+01
3.122500303680116218e+00,2.680195083671549128e+01
3.127500304394655650e+00,2.601435819788247272e+01
3.132500305109195970e+00,2.542569420356363707e+01
3.137500305823735403e+00,2.504072954435247311e+01
3.142500306538275279e+00,2.486182397923715826e+01
3.147500307252815155e+00,2.463871271289497145e+01
3.152500307967354587e+00,2.440341850540511359e+01
3.157500308681894463e+00,2.411163961203629924e+01
3.162500309396434339e+00,2.382057571131241502e+01
3.167500310110974215e+00,2.374828459479425646e+01
3.172500310825513647e+00,2.371929984318524021e+01
3.177500311540053524e+00,2.351393502587308149e+01
3.182500312254593400e+00,2.316109986335760595e+01
3.187500312969132832e+00,2.274341497366043541e+01
3.192500313683672708e+00,2.250411494881069530e+01
3.197500314398212584e+00,2.257309205632594740e+01
3.202500315112752460e+00,2.256000537037971299e+01
3.207500315827291892e+00,2.243050147523047144e+01
3.212500316541832213e+00,2.236406358661645299e+01
3.217500317256371645e+00,2.189057771416463538e+01
3.222500317970911521e+00,2.135947939020161357e+01
3.227500318685451397e+00,2.095443262512463889e+01
3.232500319399990829e+00,2.091198835495885078e+01
3.237500320114530705e+00,2.141828243969064260e+01
3.242500320829070581e+00,2.183742921824079986e+01
3.247500321543610458e+00,2.215958059077837561e+01
3.252500322258149890e+00,2.217603588228126910e+01
3.257500322972690210e+00,2.237978505570453081e+01
3.262500323687229642e+00,2.276107145639582541e+01
3.267500324401769074e+00,2.297078292564850699e+01
3.272500325116308950e+00,2.319951063886185239e+01
3.277500325830848826e+00,2.326046536557447553e+01
3.282500326545388702e+00,2.308245842676006987e+01
3.287500327259928135e+00,2.297928035719894524e+01
3.292500327974468455e+00,2.297315671628513201e+01
3.297500328689007887e+00,2.335950638906530230e+01
3.302500329403547319e+00,2.432489202594712197e+01
3.307500330118087639e+00,2.548184059959254455e+01
3.312500330832627071e+00,2.642508730165343422e+01
3.317500331547166947e+00,2.655481773051957362e+01
3.322500332261706824e+00,2.637604533297070475e+01
3.327500332976246700e+00,2.588737483215629709e+01
3.332500333690786132e+00,2.505432986455377886e+01
3.337500334405326008e+00,2.446856318528858765e+01
3.342500335119865884e+00,2.399885764493257057e+01
3.347500335834405316e+00,2.398460763505204341e+01
3.352500336548945636e+00,2.422275756500408761e+01
3.357500337263485068e+00,2.433563023130744796e+01
3.362500337978024945e+00,2.460741363427831629e+01
3.367500338692564377e+00,2.484127767747651205e+01
3.372500339407104697e+00,2.496398842574188848e+01
3.377500340121644129e+00,2.508148061518357963e+01
3.382500340836183561e+00,2.532123436238560998e+01
3.387500341550723881e+00,2.579257179548483236e+01
3.392500342265263313e+00,2.641188288446653587e+01
3.397500342979803190e+00,2.700495088083238215e+01
3.402500343694343066e+00,2.751221354828271615e+01
3.407500344408882942e+00,2.780397922738160332e+01
3.412500345123422374e+00,2.842826008771817214e+01
3.417500345837962250e+00,2.925945376874068415e+01
3.422500346552502126e+00,3.002452746199315925e+01
3.427500347267041558e+00,3.067499667108489803e+01
3.432500347981581879e+00,3.104290055369011725e+01
3.437500348696121311e+00,3.127155753698235685e+01
3.442500349410661187e+00,3.135703870650576164e+01
3.447500350125201063e+00,3.147833748410613453e+01
3.452500350839740495e+00,3.169231591718875052e+01
3.457500351554280371e+00,3.173473006953719278e+01
3.462500352268820247e+00,3.164471122267747205e+01
3.467500352983360123e+00,3.184472193075509949e+01
3.472500353697899556e+00,3.215361754416210260e+01
3.477500354412439432e+00,3.257656320191114219e+01
3.482500355126979308e+00,3.314628139041445820e+01
3.487500355841518740e+00,3.388234149444986087e+01
3.492500356556058616e+00,3.511681287351376568e+01
3.497500357270598492e+00,3.664258029169030806e+01
3.502500357985138368e+00,3.811446696470494544e+01
3.507500358699677800e+00,3.926560418900868399e+01
3.512500359414218121e+00,3.979311249429736108e+01
3.517500360128757553e+00,3.955762556946854147e+01
3.522500360843297429e+00,3.894684617099665047e+01
3.527500361557837305e+00,3.807186570318350505e+01
3.532500362272376737e+00,3.680164908160924142e+01
3.537500362986916613e+00,3.526422491884841293e+01
3.542500363701456489e+00,3.400357639377767782e+01
3.547500364415996366e+00,3.305773573416325917e+01
3.552500365130535798e+00,3.224860965627948417e+01
3.557500365845075674e+00,3.148999328108658347e+01
3.562500366559615550e+00,3.068735040783019485e+01
3.567500367274154982e+00,3.022038797709279834e+01
3.572500367988694858e+00,2.992645450845230926e+01
3.577500368703234734e+00,2.969102471978010271e+01
3.582500369417774611e+00,2.941110895122682223e+01
3.587500370132314043e+00,2.898783739389136827e+01
3.592500370846854363e+00,2.829310437708528525e+01
3.597500371561393795e+00,2.771217090754731771e+01
3.602500372275933227e+00,2.735725719889120455e+01
3.607500372990473547e+00,2.703006708581909834e+01
3.612500373705012979e+00,2.677327117856594896e+01
3.617500374419552855e+00,2.634590969507905811e+01
3.622500375134092732e+00,2.590362927757058742e+01
3.627500375848632608e+00,2.545836927195892940e+01
3.632500376563172040e+00,2.526065542918496476e+01
3.637500377277712360e+00,2.502594878230780751e+01
3.642500377992251792e+00,2.485038661344265165e+01
3.647500378706791224e+00,2.469238035429248157e+01
3.652500379421331100e+00,2.446178794956830416e+01
3.657500380135870977e+00,2.440153617157960753e+01
3.662500380850410853e+00,2.412579811060692236e+01
3.667500381564950285e+00,2.367809864378614293e+01
3.672500382279490605e+00,2.333197361493199651e+01
3.677500382994030037e+00,2.284627989326469333e+01
3.682500383708569469e+00,2.257624884033936041e+01
3.687500384423109789e+00,2.215515745275575910e+01
3.692500385137649221e+00,2.134113012010089960e+01
3.697500385852189098e+00,2.050856318562546221e+01
3.702500386566728974e+00,1.981240106941885415e+01
3.707500387281268850e+00,1.913979642478614096e+01
3.712500387995808282e+00,1.871087918134332995e+01
3.717500388710348158e+00,1.850624677951748254e+01
3.722500389424888034e+00,1.851357671949853057e+01
3.727500390139427910e+00,1.848415732308194492e+01
3.732500390853967343e+00,1.825771683535270995e+01
3.737500391568507219e+00,1.774072542676015019e+01
3.742500392283047095e+00,1.724926018347190393e+01
3.747500392997586527e+00,1.713098386725965838e+01
3.752500393712126403e+00,1.701026210311647446e+01
3.757500394426666279e+00,1.654014702195297559e+01
3.762500395141205711e+00,1.592975152829166063e+01
3.767500395855746476e+00,1.554773440780434157e+01
3.772500396570285464e+00,1.526574515164469403e+01
3.777500397284825340e+00,1.504362903468870627e+01
3.782500397999365660e+00,1.466624352189552383e+01
3.787500398713904648e+00,1.441289186217011320e+01
3.792500399428444524e+00,1.425986825449018625e+01
3.797500400142984844e+00,1.386602303356283983e+01
3.802500400857523832e+00,1.345133322657414965e+01
3.807500401572063708e+00,1.322082223103240040e+01
3.812500402286604029e+00,1.306448046917228112e+01
3.817500403001143017e+00,1.277476416735811426e+01
3.822500403715683781e+00,1.230092885228424393e+01
3.827500404430223213e+00,1.181586284717297985e+01
3.832500405144762201e+00,1.137718956680123483e+01
3.837500405859302965e+00,1.144914862111863840e+01
3.842500406573842398e+00,1.190131407707042399e+01
3.847500407288382274e+00,1.230626291572878017e+01
3.852500408002922150e+00,1.261679060856675960e+01
3.857500408717461138e+00,1.238777391052673238e+01
3.862500409432001458e+00,1.183326924879185071e+01
3.867500410146541334e+00,1.088193264475961541e+01
3.872500410861080322e+00,9.957018493436919471e+00
3.877500411575620642e+00,9.469299485411340811e+00
3.882500412290160519e+00,9.024158892104878760e+00
3.887500413004699507e+00,8.640493153759564393e+00
3.892500413719240715e+00,8.302439174453922988e+00
3.897500414433779703e+00,7.990929497978925156e+00
3.902500415148318691e+00,7.558722825509903487e+00
3.907500415862859899e+00,7.325618859447843079e+00
3.912500416577398887e+00,7.330747121872093430e+00
3.917500417291938763e+00,7.113237120647170286e+00
3.922500418006479084e+00,6.855803554590636395e+00
3.927500418721018072e+00,6.681895971766834919e+00
3.932500419435557948e+00,6.474790566451076756e+00
3.937500420150097824e+00,6.381160735858486532e+00
3.942500420864637256e+00,6.087505302888416736e+00
3.947500421579177132e+00,5.490070391211304468e+00
3.952500422293717008e+00,5.066217833559164774e+00
3.957500423008256440e+00,4.746312378841309965e+00
3.962500423722797205e+00,4.451441418793535831e+00
3.967500424437336193e+00,4.126221384545999626e+00
3.972500425151876513e+00,4.053464494754848602e+00
3.977500425866416389e+00,3.952750533028847713e+00
3.982500426580955377e+00,3.796009123402598107e+00
3.987500427295495697e+00,3.791498001903164550e+00
3.992500428010035574e+00,3.968092567413066263e+00
3.997500428724574562e+00,4.211235588781732986e+00
4.002500429439114882e+00,4.339322702953040789e+00
4.007500430153654314e+00,4.269779075201199703e+00
4.012500430868193746e+00,4.232743481240902383e+00
4.017500431582734066e+00,4.177013131524461187e+00
4.022500432297273498e+00,4.369256317804172340e+00
4.027500433011812930e+00,4.674407921022122991e+00
4.032500433726354139e+00,4.925389870371134293e+00
4.037500434440892683e+00,4.838913145324397647e+00
4.042500435155433003e+00,4.549016594069485109e+00
4.047500435869973323e+00,4.329051796865883261e+00
4.052500436584511867e+00,4.208321249712355439e+00
4.057500437299052187e+00,4.568605464030270014e+00
4.062500438013592508e+00,4.844205691346815001e+00
4.067500438728131051e+00,5.187867995632871043e+00
4.072500439442671372e+00,5.506397267047532296e+00
4.077500440157211692e+00,5.848199946619104139e+00
4.082500440871750236e+00,6.483697844675532451e+00
4.087500441586291444e+00,7.155663834275230784e+00
4.092500442300830876e+00,7.811308032916713273e+00
4.097500443015369420e+00,8.593977021359194168e+00
4.102500443729910629e+00,9.640272984316425209e+00
4.107500444444450061e+00,1.065936889607189642e+01
4.112500445158989493e+00,1.180578073734471900e+01
4.117500445873529813e+00,1.266047711449709823e+01
4.122500446588069245e+00,1.329609532405476102e+01
4.127500447302608677e+00,1.354885297386789489e+01
4.132500448017148997e+00,1.337697693825475653e+01
4.137500448731688429e+00,1.283653343619312182e+01
4.142500449446227861e+00,1.226636455482201882e+01
4.147500450160768182e+00,1.165970079833584805e+01
4.152500450875307614e+00,1.111389863687583102e+01
4.157500451589847934e+00,1.063586042846930013e+01
4.162500452304387366e+00,9.946294672999158593e+00
4.167500453018926798e+00,9.235239693907487890e+00
4.172500453733467118e+00,8.374649087476939258e+00
4.177500454448006550e+00,7.468989867423431406e+00
4.182500455162545983e+00,6.693407748161519066e+00
4.187500455877086303e+00,6.097132906583908607e+00
4.192500456591625735e+00,5.483332277044098646e+00
4.197500457306165167e+00,4.943838555322713546e+00
4.202500458020705487e+00,4.724994925250484812e+00
4.207500458735244919e+00,4.809136992360265594e+00
4.212500459449784351e+00,5.049999278087739185e+00
4.217500460164324672e+00,5.220749887798035616e+00
4.222500460878864104e+00,5.324049104594280379e+00
4.227500461593404424e+00,5.361946850312619972e+00
4.232500462307943856e+00,5.139196894563951901e+00
4.237500463022484176e+00,5.016766376275143102e+00
4.242500463737023608e+00,4.964326038120645990e+00
4.247500464451563040e+00,5.211068097672523436e+00
4.252500465166103361e+00,5.568093942768257421e+00
4.257500465880642793e+00,5.621804024144410050e+00
4.262500466595182225e+00,5.450969388694772988e+00
4.267500467309722545e+00,5.069755361165562135e+00
4.272500468024261977e+00,4.583971544209305193e+00
4.277500468738801409e+00,3.792542765704411067e+00
4.282500469453341729e+00,2.763406295605818741e+00
4.287500470167881161e+00,2.148483769825304535e+00
4.292500470882420593e+00,1.503902137550767293e+00
4.297500471596961802e+00,1.001419442547728522e+00
4.302500472311500346e+00,7.390022157897533361e-01
4.307500473026040666e+00,6.421011102758598099e-01
4.312500473740580986e+00,5.170566627996890929e-01
4.317500474455119530e+00,2.370123799389602937e-01
4.322500475169659850e+00,2.578924982384478426e-02
4.327500475884200171e+00,0.000000000000000000e+00
4.332500476598738715e+00,2.000549568531937439e-01
4.337500477313279035e+00,9.554269382374513953e-01
4.342500478027819355e+00,1.513832161725929382e+00
4.347500478742357899e+00,1.448182148958721882e+00
4.352500479456899107e+00,1.179380356548335840e+00
4.357500480171438539e+00,8.017005940985768575e-01
4.362500480885977083e+00,7.129444949538878973e-01
4.367500481600518292e+00,6.425787232789730297e-01
4.372500482315056836e+00,8.117691537932500978e-01
4.377500483029597156e+00,1.089112072989280477e+00
4.382500483744137476e+00,1.347903466288869367e+00
4.387500484458676020e+00,1.814283549339279489e+00
4.392500485173216340e+00,1.843024121574330820e+00
4.397500485887756660e+00,1.632006105322659550e+00
4.402500486602295204e+00,1.292867739212908873e+00
4.407500487316835525e+00,1.047049500092441576e+00
4.412500488031375845e+00,1.025263097213553465e+00
4.417500488745914389e+00,1.129948747667810949e+00
4.422500489460455597e+00,1.285519317055786814e+00
4.427500490174995029e+00,1.392706022654920162e+00
4.432500490889533573e+00,1.685034263541695054e+00
4.437500491604074782e+00,1.813204724149898084e+00
4.442500492318614214e+00,1.720825796189046741e+00
4.447500493033153646e+00,1.565098393139464861e+00
4.452500493747693966e+00,1.498157503029062809e+00
4.457500494462233398e+00,1.617267500975742678e+00
4.462500495176772830e+00,1.681741094541109760e+00
4.467500495891313150e+00,1.973382439006400091e+00
4.472500496605852582e+00,2.599953934288407709e+00
4.477500497320392014e+00,2.998868851933821134e+00
4.482500498034932335e+00,3.493160573441343786e+00
4.487500498749471767e+00,4.073281906706938571e+00
4.492500499464012087e+00,4.650431502081062263e+00
4.497500500178551519e+00,5.004399311391978245e+00
4.502500500893091839e+00,4.997586363375944529e+00
4.507500501607631271e+00,4.869407839888424405e+00
4.512500502322170703e+00,5.006587265396206021e+00
4.517500503036711024e+00,5.527385022641226442e+00
4.522500503751250456e+00,5.821088098772690955e+00
4.527500504465789888e+00,6.066686843197828694e+00
4.532500505180330208e+00,6.328974821135204820e+00
4.537500505894869640e+00,6.787888413262237464e+00
4.542500506609409072e+00,7.476147196611862000e+00
4.547500507323949392e+00,8.040148720000445337e+00
4.552500508038488825e+00,8.482949461095643073e+00
4.557500508753028257e+00,8.845600275672325097e+00
4.562500509467568577e+00,9.206688633976966685e+00
4.567500510182108009e+00,9.270809079748403292e+00
4.572500510896648329e+00,9.425936277128528218e+00
4.577500511611187761e+00,9.382768272417422395e+00
4.582500512325727193e+00,9.322767265592347030e+00
4.587500513040267514e+00,9.468502627922191550e+00
4.592500513754806946e+00,9.541139915673909400e+00
4.597500514469346378e+00,9.683261915068726466e+00
4.602500515183886698e+00,9.966345448958634279e+00
4.607500515898426130e+00,1.055952358389077972e+01
4.612500516612965562e+00,1.110467718287685557e+01
4.617500517327505882e+00,1.155371517886413812e+01
4.622500518042045314e+00,1.174080968219135457e+01
4.627500518756584746e+00,1.167637181069989083e+01
4.632500519471125955e+00,1.159160735383011342e+01
4.637500520185664499e+00,1.193219963398206573e+01
4.642500520900204819e+00,1.258502459443957378e+01
4.647500521614745139e+00,1.291385636580827168e+01
4.652500522329283683e+00,1.306298665081448007e+01
4.657500523043824003e+00,1.318055236105607264e+01
4.662500523758364324e+00,1.330284347836180814e+01
4.667500524472902868e+00,1.354906623841822011e+01
4.672500525187443188e+00,1.403561925384695996e+01
4.677500525901983508e+00,1.438164771345537929e+01
4.682500526616522052e+00,1.468874919281489611e+01
4.687500527331063260e+00,1.501961134960441768e+01
4.692500528045602692e+00,1.578100752910876281e+01
4.697500528760141236e+00,1.689670936190788098e+01
4.702500529474682445e+00,1.774172138304521695e+01
4.707500530189221877e+00,1.750858352229448656e+01
4.712500530903761309e+00,1.712326465887605309e+01
4.717500531618301629e+00,1.687355007265870199e+01
4.722500532332841061e+00,1.711125091684596100e+01
4.727500533047380493e+00,1.769724205980236320e+01
4.732500533761920813e+00,1.802792082531669848e+01
4.737500534476460246e+00,1.847594185591282212e+01
4.742500535190999678e+00,1.889726667342506516e+01
4.747500535905539998e+00,1.955883701887108828e+01
4.752500536620079430e+00,2.036199404193337159e+01
4.757500537334618862e+00,2.076899197286229537e+01
4.762500538049159182e+00,2.107973152094234592e+01
4.767500538763698614e+00,2.110342125147280967e+01
4.772500539478238046e+00,2.126554169712414932e+01
4.777500540192778367e+00,2.157821278960585687e+01
4.782500540907317799e+00,2.224529639875669318e+01
4.787500541621858119e+00,2.340757455522816599e+01
4.792500542336397551e+00,2.416466107160533738e+01
4.797500543050936983e+00,2.476314241157484730e+01
4.802500543765477303e+00,2.524266533643543653e+01
4.807500544480016735e+00,2.582863710043778838e+01
4.812500545194556167e+00,2.645453380041936953e+01
4.817500545909096488e+00,2.679742283676961279e+01
4.822500546623636808e+00,2.748624538415765528e+01
4.827500547338175352e+00,2.822406980952877120e+01
4.832500548052715672e+00,2.892410851783159842e+01
4.837500548767255992e+00,2.999011345985724120e+01
4.842500549481794536e+00,3.059661905218678157e+01
4.847500550196334856e+00,3.134153006784123363e+01
4.852500550910875177e+00,3.232699321833774775e+01
4.857500551625414609e+00,3.348901751504348567e+01
4.862500552339954041e+00,3.462274282388733582e+01
4.867500553054494361e+00,3.585320402554128805e+01
4.872500553769033793e+00,3.742878804669481951e+01
4.877500554483574113e+00,3.916151095968854179e+01
4.882500555198113545e+00,4.062696915441387091e+01
4.887500555912652977e+00,4.181900242427457215e+01
4.892500556627193298e+00,4.335468053847557712e+01
4.897500557341732730e+00,4.491030788071992674e+01
4.902500558056272162e+00,4.623640758009111096e+01
4.907500558770812482e+00,4.748044489974807902e+01
4.912500559485352802e+00,4.866320663148098902e+01
4.917500560199891346e+00,5.008340314651485414e+01
4.922500560914431667e+00,5.120331903029835985e+01
4.927500561628971987e+00,5.233036215479273778e+01
4.932500562343510531e+00,5.379165474294757132e+01
4.937500563058050851e+00,5.525532243122324871e+01
4.942500563772590283e+00,5.707393909383318942e+01
4.947500564487130603e+00,5.913056566112391010e+01
4.952500565201670035e+00,6.114548229733361495e+01
4.957500565916209467e+00,6.335404484592532981e+01
4.962500566630749788e+00,6.508151393117231009e+01
4.967500567345289220e+00,6.682786330778895945e+01
4.972500568059828652e+00,6.868095735118657785e+01
4.977500568774368972e+00,7.088005813757416718e+01
4.982500569488909292e+00,7.367285059046321294e+01
4.987500570203447836e+00,7.589204160178286429e+01
4.992500570917988156e+00,7.803424797135545532e+01
4.997500571632528477e+00,8.025984381902509313e+01
5.002500572347067020e+00,8.267555335811795203e+01
5.007500573061607341e+00,8.539057272163393009e+01
5.012500573776147661e+00,8.801351820445489693e+01
5.017500574490687093e+00,9.068123485711578269e+01
5.022500575205226525e+00,9.348878916160623476e+01
5.027500575919766845e+00,9.636559818178085379e+01
5.032500576634306277e+00,9.931322253213045315e+01
5.037500577348845709e+00,1.020053724813169538e+02
5.042500578063386030e+00,1.049447988213347003e+02
5.047500578777925462e+00,1.077982232874513784e+02
5.052500579492465782e+00,1.101099005699475697e+02
5.057500580207005214e+00,1.120070016149165326e+02
5.062500580921544646e+00,1.137899761731127342e+02
5.067500581636084966e+00,1.144764981124706651e+02
5.072500582350624398e+00,1.141213811896088259e+02
5.077500583065163831e+00,1.128326007783645650e+02
5.082500583779704151e+00,1.113774034889532345e+02
5.087500584494244471e+00,1.098362988672067218e+02
5.092500585208783015e+00,1.080010696484977188e+02
5.097500585923323335e+00,1.058828589159623448e+02
5.102500586637863655e+00,1.034914974930960625e+02
5.107500587352402199e+00,1.009578489144760738e+02
5.112500588066942520e+00,9.830550742382609997e+01
5.117500588781482840e+00,9.601174157755059468e+01
5.122500589496022272e+00,9.397044590490867222e+01
5.127500590210561704e+00,9.191508402326741134e+01
5.132500590925102024e+00,8.987861905804089702e+01
5.137500591639641456e+00,8.786270309583329663e+01
5.142500592354181776e+00,8.603594988953540224e+01
5.147500593068720320e+00,8.403380058099725147e+01
5.152500593783260641e+00,8.166155714831262458e+01
5.157500594497800961e+00,7.917880623396087003e+01
5.162500595212339505e+00,7.736564228935486653e+01
5.167500595926879825e+00,7.601598422525063370e+01
5.172500596641420145e+00,7.466615207191887293e+01
5.177500597355959577e+00,7.311409305338190734e+01
5.182500598070499009e+00,7.160736986868045051e+01
5.187500598785039330e+00,7.015395170751480691e+01
5.192500599499578762e+00,6.880215199440317519e+01
5.197500600214118194e+00,6.739383273440142830e+01
5.202500600928658514e+00,6.596113302874306328e+01
5.207500601643197946e+00,6.413458064712375517e+01
5.212500602357738266e+00,6.200405394177835205e+01
5.217500603072277698e+00,5.980817393734133702e+01
5.222500603786817130e+00,5.722837171367649489e+01
5.227500604501357451e+00,5.448846726331333912e+01
5.232500605215896883e+00,5.173974029224541482e+01
5.237500605930436315e+00,4.938252445822740810e+01
5.242500606644976635e+00,4.726826425555577771e+01
5.247500607359516955e+00,4.496306481977336489e+01
5.252500608074055499e+00,4.292759305073013820e+01
5.257500608788595819e+00,4.102235715361604207e+01
5.262500609503136140e+00,3.933580112139753737e+01
5.267500610217674684e+00,3.834458305514505128e+01
5.272500610932215004e+00,3.747680758592451866e+01
5.277500611646755324e+00,3.634557690020182008e+01
5.282500612361294756e+00,3.493801661876500475e+01
5.287500613075834188e+00,3.356269400962997906e+01
5.292500613790374508e+00,3.211731818336733113e+01
5.297500614504913941e+00,3.105999253452370112e+01
5.302500615219453373e+00,3.015735316937133348e+01
5.307500615933993693e+00,2.912501080045382196e+01
5.312500616648533125e+00,2.806706490675617260e+01
5.317500617363073445e+00,2.699557394856458359e+01
5.322500618077612877e+00,2.587434809208860997e+01
5.327500618792152309e+00,2.488017967822707988e+01
5.332500619506692630e+00,2.400761006828435029e+01
5.337500620221232062e+00,2.292293355023485901e+01
5.342500620935771494e+00,2.199965876451864233e+01
5.347500621650311814e+00,2.106673868452446641e+01
5.352500622364851246e+00,1.998593267714943522e+01
5.357500623079390678e+00,1.879090562390814512e+01
5.362500623793930998e+00,1.738901014750763352e+01
5.367500624508470430e+00,1.610788695365897638e+01
5.372500625223009862e+00,1.489480565140331692e+01
5.377500625937550183e+00,1.383753877656215536e+01
5.382500626652089615e+00,1.312185080542349169e+01
5.387500627366629935e+00,1.252652378952103618e+01
5.392500628081169367e+00,1.185655437713074889e+01
5.397500628795708799e+00,1.091519971172334635e+01
5.402500629510249119e+00,1.019144691439765893e+01
5.407500630224788551e+00,9.642026023348137187e+00
5.412500630939327984e+00,9.149326253642982465e+00
5.417500631653868304e+00,8.651767090987220854e+00
5.422500632368408624e+00,8.337432324938674810e+00
5.427500633082947168e+00,7.806728740327287142e+00
5.432500633797487488e+00,7.234007211017399186e+00
5.437500634512027808e+00,6.458047319061904545e+00
5.442500635226567240e+00,6.013307354713788300e+00
5.447500635941106673e+00,5.925090332064769427e+00
5.452500636655646993e+00,5.935557172650874236e+00
5.457500637370186425e+00,5.892032369527214541e+00
5.462500638084725857e+00,5.476435139625266402e+00
5.467500638799266177e+00,4.966113163997647462e+00
5.472500639513805609e+00,4.547960019472839122e+00
5.477500640228345929e+00,4.396112932572123100e+00
5.482500640942885362e+00,4.495408590069246202e+00
5.487500641657424794e+00,4.429255453456050873e+00
5.492500642371965114e+00,4.204432342937536760e+00
5.497500643086504546e+00,3.884541806585332324e+00
