1.502500072169232093e+00,1.499515869699331461e+01
1.507500072883772191e+00,1.672693487604806251e+01
1.512500073598311845e+00,1.822405293427232209e+01
1.517500074312851721e+00,1.968736798690110845e+01
1.522500075027391375e+00,2.102415594599716542e+01
1.527500075741931251e+00,2.170257519203653374e+01
1.532500076456470905e+00,2.241136506186671795e+01
1.537500077171010782e+00,2.316067592842989598e+01
1.542500077885550436e+00,2.348208140936282007e+01
1.547500078600090090e+00,2.342168139587681708e+01
1.552500079314630188e+00,2.381720166364010538e+01
1.557500080029169620e+00,2.494258615941350854e+01
1.562500080743709496e+00,2.634005877007740537e+01
1.567500081458249372e+00,2.717614139046099808e+01
1.572500082172789027e+00,2.721357775286247715e+01
1.577500082887328903e+00,2.638604045966707190e+01
1.582500083601868335e+00,2.515469836750264676e+01
1.587500084316408433e+00,2.467621585613539992e+01
1.592500085030948087e+00,2.488795790788628892e+01
1.597500085745487741e+00,2.515847228663477608e+01
1.602500086460027617e+00,2.543543875781290353e+01
1.607500087174567494e+00,2.478085585720401696e+01
1.612500087889107148e+00,2.355835778667386649e+01
1.617500088603646802e+00,2.264906524542317356e+01
1.622500089318186678e+00,2.196223606590984900e+01
1.627500090032726332e+00,2.112206331068375675e+01
1.632500090747266430e+00,2.065493113287544702e+01
1.637500091461805862e+00,2.075919016791164040e+01
1.642500092176345738e+00,2.071091925333871586e+01
1.647500092890885615e+00,2.011493250995312110e+01
1.652500093605425047e+00,1.931167021197467193e+01
1.657500094319965145e+00,1.834967193259404894e+01
1.662500095034504799e+00,1.771818152543613678e+01
1.667500095749044675e+00,1.709025015288426630e+01
1.672500096463584329e+00,1.656129219524211749e+01
1.677500097178123983e+00,1.608780595480527609e+01
1.682500097892663860e+00,1.521512634233226891e+01
1.687500098607203736e+00,1.467254816897292358e+01
1.692500099321743390e+00,1.419952853973882156e+01
1.697500100036283044e+00,1.415548910047709796e+01
1.702500100750823142e+00,1.388511144888997251e+01
1.707500101465362574e+00,1.322355564124001148e+01
1.712500102179902450e+00,1.272454857209186230e+01
1.717500102894442326e+00,1.251164129934778657e+01
1.722500103608981981e+00,1.280988629114631294e+01
1.727500104323521857e+00,1.334674685048048559e+01
1.732500105038061289e+00,1.385130365894343640e+01
1.737500105752601387e+00,1.429506898647593971e+01
1.742500106467141041e+00,1.488963683859986986e+01
1.747500107181680695e+00,1.624479452942250646e+01
1.752500107896220571e+00,1.876845554368850344e+01
1.757500108610760448e+00,2.210974425428776158e+01
1.762500109325300102e+00,2.746401911631727444e+01
1.767500110039839756e+00,3.583446934745489898e+01
1.772500110754379632e+00,4.951316351262119042e+01
1.777500111468919286e+00,7.215612276683089021e+01
1.782500112183459384e+00,1.068952898499895241e+02
1.787500112897998816e+00,1.467400183453462432e+02
1.792500113612538692e+00,1.679026952387215488e+02
1.797500114327078569e+00,1.632540021495977953e+02
1.802500115041618223e+00,1.359939053219633252e+02
1.807500115756158099e+00,1.059064774022584174e+02
1.812500116470697753e+00,9.050534421731089196e+01
1.817500117185237629e+00,8.697646431593113903e+01
1.822500117899777283e+00,9.227081085425140827e+01
1.827500118614316937e+00,1.028235488423813422e+02
1.832500119328856814e+00,1.123218574105860625e+02
1.837500120043396690e+00,1.126908612063156170e+02
1.842500120757936344e+00,1.003500085685667500e+02
1.847500121472475998e+00,7.759631127450558097e+01
1.852500122187016096e+00,5.684653203998414028e+01
1.857500122901555528e+00,4.285517158059712983e+01
1.862500123616095404e+00,3.325273765515282776e+01
1.867500124330635058e+00,2.706387250757262564e+01
1.872500125045175157e+00,2.327473567987686920e+01
1.877500125759714811e+00,2.065633775289580853e+01
1.882500126474254243e+00,1.912916437017969429e+01
1.887500127188794341e+00,1.842784909002148197e+01
1.892500127903333995e+00,1.873621366911720543e+01
1.897500128617873427e+00,1.902610473293452742e+01
1.902500129332413525e+00,1.933156369803106145e+01
1.907500130046953402e+00,1.988115099123598384e+01
1.912500130761493056e+00,2.047901904812636076e+01
1.917500131476032710e+00,2.104214375875960741e+01
1.922500132190572586e+00,2.136253149933691020e+01
1.927500132905112240e+00,2.163236561698721516e+01
1.932500133619652338e+00,2.233731697704337193e+01
1.937500134334191770e+00,2.331330665874793340e+01
1.942500135048731869e+00,2.424961874861446631e+01
1.947500135763271523e+00,2.489800678611948115e+01
1.952500136477810955e+00,2.572537320744129374e+01
1.957500137192351053e+00,2.691584454114359914e+01
1.962500137906890707e+00,2.818586540267995133e+01
1.967500138621430139e+00,2.908757373889784503e+01
1.972500139335970237e+00,2.993412431471875834e+01
1.977500140050510113e+00,3.064118041270700132e+01
1.982500140765049768e+00,3.142787208536708476e+01
1.987500141479589422e+00,3.227437672188875695e+01
1.992500142194129298e+00,3.300205820863686768e+01
1.997500142908669396e+00,3.361996351151100271e+01
2.002500143623208384e+00,3.377840543994147993e+01
2.007500144337748704e+00,3.317444970775540014e+01
2.012500145052288580e+00,3.289432216005252485e+01
2.017500145766828012e+00,3.311146785554649341e+01
2.022500146481367889e+00,3.370950638913581088e+01
2.027500147195907765e+00,3.438086470470329914e+01
2.032500147910447641e+00,3.439014379463145588e+01
2.037500148624987073e+00,3.441261967665661814e+01
2.042500149339526949e+00,3.509006004454681715e+01
2.047500150054066825e+00,3.657842324299338088e+01
2.052500150768606257e+00,3.889716246711026315e+01
2.057500151483146134e+00,4.243587859473916524e+01
2.062500152197686010e+00,4.751132702265817898e+01
2.067500152912225886e+00,5.289839300864520055e+01
2.072500153626765762e+00,5.632154674986702503e+01
2.077500154341305194e+00,5.620917687923173389e+01
2.082500155055845070e+00,5.420576697931596755e+01
2.087500155770384946e+00,5.250121076816441246e+01
2.092500156484924378e+00,5.212304842766246793e+01
2.097500157199464255e+00,5.422839775612527546e+01
2.102500157914004575e+00,5.971921906111629141e+01
2.107500158628544007e+00,6.928262888038881329e+01
2.112500159343083439e+00,8.451144441571432253e+01
2.117500160057623759e+00,9.969025531045764410e+01
2.122500160772163191e+00,1.050725842943343764e+02
2.127500161486702623e+00,9.759527316996542368e+01
2.132500162201242500e+00,7.847763442442607129e+01
2.137500162915782820e+00,5.944651836813636692e+01
2.142500163630322252e+00,4.676615932648121543e+01
2.147500164344861684e+00,3.982304502479132680e+01
2.152500165059402004e+00,3.652243148112762583e+01
2.157500165773941436e+00,3.490360789906742411e+01
2.162500166488480868e+00,3.335791424603320365e+01
2.167500167203021189e+00,3.102388285505423937e+01
2.172500167917561065e+00,2.867337734098225610e+01
2.177500168632100497e+00,2.708540241513821911e+01
2.182500169346640373e+00,2.650698035035014755e+01
2.187500170061180249e+00,2.731956333465711850e+01
2.192500170775719681e+00,2.825274807110645270e+01
2.197500171490259557e+00,2.777191005528322876e+01
2.202500172204799433e+00,2.553297652470968160e+01
2.207500172919339310e+00,2.263053436918278294e+01
2.212500173633879186e+00,2.016945488680983090e+01
2.217500174348418618e+00,1.876187254394949377e+01
2.222500175062958494e+00,1.807027579569677300e+01
2.227500175777497926e+00,1.757059912706915838e+01
2.232500176492037802e+00,1.705753311176755460e+01
2.237500177206577678e+00,1.631084521312465085e+01
2.242500177921117555e+00,1.550898452059504962e+01
2.247500178635657431e+00,1.487666475772982722e+01
2.252500179350196863e+00,1.459859108897637725e+01
2.257500180064736739e+00,1.432437344991365080e+01
2.262500180779277059e+00,1.440891351029716816e+01
2.267500181493816047e+00,1.427901234022795052e+01
2.272500182208355923e+00,1.423067265639764400e+01
2.277500182922896244e+00,1.440547821676813101e+01
2.282500183637435676e+00,1.451962824454585643e+01
2.287500184351975108e+00,1.456880193028177928e+01
2.292500185066515428e+00,1.463186936951331063e+01
2.297500185781055304e+00,1.480064009806176273e+01
2.302500186495594292e+00,1.511766826795360430e+01
2.307500187210134612e+00,1.547618550888580558e+01
2.312500187924674488e+00,1.558833212953345537e+01
2.317500188639213921e+00,1.628755579932499131e+01
2.322500189353753797e+00,1.755552805248032655e+01
2.327500190068293673e+00,1.872743603618863517e+01
2.332500190782833549e+00,1.961744027440852278e+01
2.337500191497372981e+00,1.966637974612086737e+01
2.342500192211912857e+00,1.888857974678313667e+01
2.347500192926452733e+00,1.769076057985830630e+01
2.352500193640992165e+00,1.661453023272002838e+01
2.357500194355532042e+00,1.590910776544444616e+01
2.362500195070071918e+00,1.520393073280501994e+01
2.367500195784611794e+00,1.491771280157803403e+01
2.372500196499151670e+00,1.452333632878259095e+01
2.377500197213691102e+00,1.409198077976662944e+01
2.382500197928230978e+00,1.373629899784998543e+01
2.387500198642770854e+00,1.329269869857773756e+01
2.392500199357310287e+00,1.301277923740809683e+01
2.397500200071850163e+00,1.288303375826029651e+01
2.402500200786390039e+00,1.313565241627793512e+01
2.407500201500929915e+00,1.333207950684220577e+01
2.412500202215469347e+00,1.339462967661381754e+01
2.417500202930009223e+00,1.356312244512315601e+01
2.422500203644549099e+00,1.368861389432356646e+01
2.427500204359088531e+00,1.375012030150679720e+01
2.432500205073628408e+00,1.384430319799662357e+01
2.437500205788168728e+00,1.405030701573173246e+01
2.442500206502708160e+00,1.464377886275428864e+01
2.447500207217247592e+00,1.562283898229071610e+01
2.452500207931787912e+00,1.661491058683111532e+01
2.457500208646327344e+00,1.737244739728623699e+01
2.462500209360866776e+00,1.753871123097115969e+01
2.467500210075407097e+00,1.749976174779038729e+01
2.472500210789946973e+00,1.784374600110993470e+01
2.477500211504486405e+00,1.830856079136293602e+01
2.482500212219026281e+00,1.902938074231008159e+01
2.487500212933566157e+00,1.970290390659522473e+01
2.492500213648105589e+00,1.980842110177002269e+01
2.497500214362645465e+00,1.929049413303505389e+01
2.502500215077185342e+00,1.817571604723036671e+01
2.507500215791725218e+00,1.717125239268580117e+01
2.512500216506264650e+00,1.627601675641005841e+01
2.517500217220804526e+00,1.559518492433113579e+01
2.522500217935344402e+00,1.536616534035937320e+01
2.527500218649883834e+00,1.525709153810799990e+01
2.532500219364423710e+00,1.514532555894083998e+01
2.537500220078963586e+00,1.466662177040865345e+01
2.542500220793503463e+00,1.427118765734149974e+01
2.547500221508043339e+00,1.400392674184661246e+01
2.552500222222582771e+00,1.391801280213314840e+01
2.557500222937122647e+00,1.372616550735205010e+01
2.562500223651662967e+00,1.328014260516869172e+01
2.567500224366201955e+00,1.292837541988228622e+01
2.572500225080741831e+00,1.298523765132654262e+01
2.577500225795282152e+00,1.320129073626543459e+01
2.582500226509821584e+00,1.334256851643499431e+01
2.587500227224361016e+00,1.349987289290720582e+01
2.592500227938901336e+00,1.374627504686264956e+01
2.597500228653441212e+00,1.414944454121831541e+01
2.602500229367980644e+00,1.457191177186859932e+01
2.607500230082520076e+00,1.449223495993709321e+01
2.612500230797060397e+00,1.411223892137292069e+01
2.617500231511599829e+00,1.384462493029707275e+01
2.622500232226139261e+00,1.355485304328408347e+01
2.627500232940679581e+00,1.364186109356649013e+01
2.632500233655219457e+00,1.396860668328247357e+01
2.637500234369758889e+00,1.438098808197798917e+01
2.642500235084298765e+00,1.482271239072667868e+01
2.647500235798838641e+00,1.506222425312995483e+01
2.652500236513378074e+00,1.566902421474935636e+01
2.657500237227917950e+00,1.638140553957356360e+01
2.662500237942457826e+00,1.696604283312240113e+01
2.667500238656997702e+00,1.764841196437816961e+01
2.672500239371537578e+00,1.883205886467254686e+01
2.677500240086077010e+00,2.041558561172564623e+01
2.682500240800616886e+00,2.161177274415473448e+01
2.687500241515156763e+00,2.214960562871823413e+01
2.692500242229696195e+00,2.252735673575728015e+01
2.697500242944236071e+00,2.298725604940977973e+01
2.702500243658775947e+00,2.314928013015992292e+01
2.707500244373315823e+00,2.280134376528366147e+01
2.712500245087855255e+00,2.173880802554003822e+01
2.717500245802395131e+00,2.032350126131575507e+01
2.722500246516935007e+00,1.914408897572474189e+01
2.727500247231474440e+00,1.836379110981317808e+01
2.732500247946014316e+00,1.748420650549968514e+01
2.737500248660554636e+00,1.657520182164051903e+01
2.742500249375094068e+00,1.596253360439089874e+01
2.747500250089633500e+00,1.589600014272133421e+01
2.752500250804173820e+00,1.644867242549611319e+01
2.757500251518713252e+00,1.722566489347440211e+01
2.762500252233252684e+00,1.779504364248066395e+01
2.767500252947793005e+00,1.822939136485729250e+01
2.772500253662332881e+00,1.852014450771406473e+01
2.777500254376872313e+00,1.865132374172168284e+01
2.782500255091412189e+00,1.890379421506372637e+01
2.787500255805952065e+00,1.942896550465115979e+01
2.792500256520491497e+00,2.006364146968348905e+01
2.797500257235031373e+00,2.067358714622145044e+01
2.802500257949571250e+00,2.190484100308970028e+01
2.807500258664111126e+00,2.293963535207564064e+01
2.812500259378650558e+00,2.403393296906301657e+01
2.817500260093190434e+00,2.537628329524829951e+01
2.822500260807730310e+00,2.730159807194394261e+01
2.827500261522270186e+00,2.960731344999555859e+01
2.832500262236809618e+00,3.196162363239955084e+01
2.837500262951349495e+00,3.481961856965529023e+01
2.842500263665889371e+00,3.818088283675757566e+01
2.847500264380429247e+00,4.142866799651585552e+01
2.852500265094968679e+00,4.472137209178146122e+01
2.857500265809508555e+00,4.864317441110813434e+01
2.862500266524048875e+00,5.393715926808903305e+01
2.867500267238588307e+00,6.105881331584555483e+01
2.872500267953127739e+00,7.102667251972047779e+01
2.877500268667668060e+00,8.463676917879951134e+01
2.882500269382207492e+00,1.034316871017268795e+02
2.887500270096746924e+00,1.302727967141644285e+02
2.892500270811286800e+00,1.677314293752323238e+02
2.897500271525826676e+00,2.241766154146530994e+02
2.902500272240366552e+00,3.068635851093496285e+02
2.907500272954905984e+00,4.176437296209783767e+02
2.912500273669446305e+00,5.537459730662753827e+02
2.917500274383985737e+00,7.092848901928729219e+02
2.922500275098525169e+00,9.036936592601888378e+02
2.927500275813065489e+00,1.138817628933994456e+03
2.932500276527604921e+00,1.289210643970036472e+03
2.937500277242144797e+00,1.229290074510947761e+03
2.942500277956684673e+00,1.073106835617526940e+03
2.947500278671224549e+00,7.746523941047091739e+02
2.952500279385763982e+00,5.347384682486260772e+02
2.957500280100304302e+00,3.906790346225754433e+02
2.962500280814843734e+00,3.082770224329901794e+02
2.967500281529383166e+00,2.627895234804045685e+02
2.972500282243923486e+00,2.388966031946401358e+02
2.977500282958462918e+00,2.307595281738996960e+02
2.982500283673002794e+00,2.364242696027631609e+02
2.987500284387542226e+00,2.517098699514370992e+02
2.992500285102082547e+00,2.722533648507817929e+02
2.997500285816621979e+00,2.894878104360911379e+02
3.002500286531161411e+00,2.944619244604014625e+02
3.007500287245701731e+00,2.827235701812373350e+02
3.012500287960241163e+00,2.551362846809534517e+02
3.017500288674781039e+00,2.140372683687130007e+02
3.022500289389320915e+00,1.731109201367666515e+02
3.027500290103860792e+00,1.415338874093058621e+02
3.032500290818400224e+00,1.175233144335056750e+02
3.037500291532940100e+00,9.727577660572308105e+01
3.042500292247479976e+00,8.011269673128782642e+01
3.047500292962019408e+00,6.705621172374844718e+01
3.052500293676559728e+00,5.795633935294290495e+01
3.057500294391099160e+00,5.213264084268041643e+01
3.062500295105639037e+00,4.892939665201703292e+01
3.067500295820178913e+00,4.781426980535866278e+01
3.072500296534718789e+00,4.813822410537522956e+01
3.077500297249258221e+00,4.892324385958789890e+01
3.082500297963798097e+00,4.924368153664369174e+01
3.087500298678337973e+00,4.840798994407265354e+01
3.092500299392877405e+00,4.618140899589008086e+01
3.097500300107417281e+00,4.267225721652573611e+01
3.102500300821957158e+00,3.854045835217550575e+01
3.107500301536497034e+00,3.412574571652783106e+01
3.112500302251036466e+00,3.049658186851866049e+01
3.117500302965576342e+00,2.822847892485680177e+01
3.122500303680116218e+00,2.651401442918484008e+01
3.127500304394655650e+00,2.542937187944437483e+01
3.132500305109195970e+00,2.459211660680688283e+01
3.137500305823735403e+00,2.418826486748855586e+01
3.142500306538275279e+00,2.395595693847826624e+01
3.147500307252815155e+00,2.376214779138393851e+01
3.152500307967354587e+00,2.378385098893960503e+01
3.157500308681894463e+00,2.384154322604183562e+01
3.162500309396434339e+00,2.361825002312809829e+01
3.167500310110974215e+00,2.329687482776256502e+01
3.172500310825513647e+00,2.321629642676157346e+01
3.177500311540053524e+00,2.323684746184341066e+01
3.182500312254593400e+00,2.323338693940974053e+01
3.187500312969132832e+00,2.310146478134834069e+01
3.192500313683672708e+00,2.312139653208379286e+01
3.197500314398212584e+00,2.331977458906476386e+01
3.202500315112752460e+00,2.357096966762776447e+01
3.207500315827291892e+00,2.375997259789028249e+01
3.212500316541832213e+00,2.390879813336334792e+01
3.217500317256371645e+00,2.389520443339284839e+01
3.222500317970911521e+00,2.382628925458232061e+01
3.227500318685451397e+00,2.386325801722040296e+01
3.232500319399990829e+00,2.391691941076294370e+01
3.237500320114530705e+00,2.378739486651278412e+01
3.242500320829070581e+00,2.391073110646135547e+01
3.247500321543610458e+00,2.425211913744811909e+01
3.252500322258149890e+00,2.456025826485057451e+01
3.257500322972690210e+00,2.477754286017830054e+01
3.262500323687229642e+00,2.496562998804432709e+01
3.267500324401769074e+00,2.495927851750968784e+01
3.272500325116308950e+00,2.476686181741240489e+01
3.277500325830848826e+00,2.497115510989965514e+01
3.282500326545388702e+00,2.563656203294510760e+01
3.287500327259928135e+00,2.632702845872336184e+01
3.292500327974468455e+00,2.689916383151825130e+01
3.297500328689007887e+00,2.709541133375284971e+01
3.302500329403547319e+00,2.710215335475623988e+01
3.307500330118087639e+00,2.723846271148175902e+01
3.312500330832627071e+00,2.751396397664888127e+01
3.317500331547166947e+00,2.788255662328765538e+01
3.322500332261706824e+00,2.822190721225695142e+01
3.327500332976246700e+00,2.866715910905372766e+01
3.332500333690786132e+00,2.933667100921979909e+01
3.337500334405326008e+00,2.998436068835684409e+01
3.342500335119865884e+00,3.050690715057891111e+01
3.347500335834405316e+00,3.107198549180714053e+01
3.352500336548945636e+00,3.164832671423920374e+01
3.357500337263485068e+00,3.229990717948680867e+01
3.362500337978024945e+00,3.307175183124667228e+01
3.367500338692564377e+00,3.404388927344081139e+01
3.372500339407104697e+00,3.499291182882211615e+01
3.377500340121644129e+00,3.593958296086543669e+01
3.382500340836183561e+00,3.720862120932724793e+01
3.387500341550723881e+00,3.888106225080514378e+01
3.392500342265263313e+00,4.124353868390943489e+01
3.397500342979803190e+00,4.407081176755576735e+01
3.402500343694343066e+00,4.780506219246490218e+01
3.407500344408882942e+00,5.299894428039249306e+01
3.412500345123422374e+00,5.957922734156556999e+01
3.417500345837962250e+00,6.701983034266362438e+01
3.422500346552502126e+00,7.538408875253412589e+01
3.427500347267041558e+00,8.406846792111196010e+01
3.432500347981581879e+00,9.258253134115085459e+01
3.437500348696121311e+00,9.982076071659417948e+01
3.442500349410661187e+00,1.031393992243079083e+02
3.447500350125201063e+00,1.010068421390909066e+02
3.452500350839740495e+00,9.434650182392260831e+01
3.457500351554280371e+00,8.519009752489671428e+01
3.462500352268820247e+00,7.604313388685733344e+01
3.467500352983360123e+00,6.851676740849092084e+01
3.472500353697899556e+00,6.334825321967849732e+01
3.477500354412439432e+00,6.059903468112059954e+01
3.482500355126979308e+00,5.987685031793927237e+01
3.487500355841518740e+00,6.088489763805091570e+01
3.492500356556058616e+00,6.294978723373804996e+01
3.497500357270598492e+00,6.599172710783460616e+01
3.502500357985138368e+00,6.981407345498655559e+01
3.507500358699677800e+00,7.437563901127089139e+01
3.512500359414218121e+00,7.858015228272341801e+01
3.517500360128757553e+00,8.123566916644341518e+01
3.522500360843297429e+00,8.145539082169761969e+01
3.527500361557837305e+00,7.903214487110273012e+01
3.532500362272376737e+00,7.417944375024603687e+01
3.537500362986916613e+00,6.761528597722656286e+01
3.542500363701456489e+00,6.115425820344665908e+01
3.547500364415996366e+00,5.565687603393507743e+01
3.552500365130535798e+00,5.162403593165402071e+01
3.557500365845075674e+00,4.876482527610272655e+01
3.562500366559615550e+00,4.715689223637559735e+01
3.567500367274154982e+00,4.671910202116993105e+01
3.572500367988694858e+00,4.705940675184461952e+01
3.577500368703234734e+00,4.772695117531964115e+01
3.582500369417774611e+00,4.829138784963345188e+01
3.587500370132314043e+00,4.816297602090423879e+01
3.592500370846854363e+00,4.717708479716941383e+01
3.597500371561393795e+00,4.585057132222226528e+01
3.602500372275933227e+00,4.435080543382412088e+01
3.607500372990473547e+00,4.302225047426134097e+01
3.612500373705012979e+00,4.192338955988486759e+01
3.617500374419552855e+00,4.091284618658892214e+01
3.622500375134092732e+00,4.032022163216447552e+01
3.627500375848632608e+00,4.010625120630663787e+01
3.632500376563172040e+00,4.038404448499915134e+01
3.637500377277712360e+00,4.059346275193001929e+01
3.642500377992251792e+00,4.050008140084383967e+01
3.647500378706791224e+00,4.055441234765964964e+01
3.652500379421331100e+00,4.125463596407371369e+01
3.657500380135870977e+00,4.252239453459856122e+01
3.662500380850410853e+00,4.379257497141628619e+01
3.667500381564950285e+00,4.464960031829224363e+01
3.672500382279490605e+00,4.506156060995937196e+01
3.677500382994030037e+00,4.462807664165683263e+01
3.682500383708569469e+00,4.347669279140455956e+01
3.687500384423109789e+00,4.175036481297962609e+01
3.692500385137649221e+00,3.974369030467539687e+01
3.697500385852189098e+00,3.770451393391726924e+01
3.702500386566728974e+00,3.573709516188063162e+01
3.707500387281268850e+00,3.392039437631268584e+01
3.712500387995808282e+00,3.255084022552244960e+01
3.717500388710348158e+00,3.156579153245297675e+01
3.722500389424888034e+00,3.078694549781238265e+01
3.727500390139427910e+00,3.025758745594202992e+01
3.732500390853967343e+00,2.977738091388619068e+01
3.737500391568507219e+00,2.931438537366506125e+01
3.742500392283047095e+00,2.887608904712681124e+01
3.747500392997586527e+00,2.842655363134377922e+01
3.752500393712126403e+00,2.813217236526264742e+01
3.757500394426666279e+00,2.796948863322597845e+01
3.762500395141205711e+00,2.765210636537045730e+01
3.767500395855746476e+00,2.731519931497803100e+01
3.772500396570285464e+00,2.705521442762250217e+01
3.777500397284825340e+00,2.668722657750709004e+01
3.782500397999365660e+00,2.615420980770318238e+01
3.787500398713904648e+00,2.550701779890903254e+01
3.792500399428444524e+00,2.481118318586123905e+01
3.797500400142984844e+00,2.414728376828219325e+01
3.802500400857523832e+00,2.360502210072615981e+01
3.807500401572063708e+00,2.318840737735575885e+01
3.812500402286604029e+00,2.291240460186861583e+01
3.817500403001143017e+00,2.251967042734685265e+01
3.822500403715683781e+00,2.180666399610981898e+01
3.827500404430223213e+00,2.085411568971818497e+01
3.832500405144762201e+00,1.998772048835695614e+01
3.837500405859302965e+00,1.928729324427916936e+01
3.842500406573842398e+00,1.884824329118686137e+01
3.847500407288382274e+00,1.845805759853448080e+01
3.852500408002922150e+00,1.819102733403497041e+01
3.857500408717461138e+00,1.821433917225937194e+01
3.862500409432001458e+00,1.806804355636381842e+01
3.867500410146541334e+00,1.782609595785766032e+01
3.872500410861080322e+00,1.751539374184829967e+01
3.877500411575620642e+00,1.724898539555852039e+01
3.882500412290160519e+00,1.712252438575700353e+01
3.887500413004699507e+00,1.695779943220173891e+01
3.892500413719240715e+00,1.682659925373843635e+01
3.897500414433779703e+00,1.674645231440069892e+01
3.902500415148318691e+00,1.667339415740087816e+01
3.907500415862859899e+00,1.653282067661859855e+01
3.912500416577398887e+00,1.629535481582740886e+01
3.917500417291938763e+00,1.590497767221336289e+01
3.922500418006479084e+00,1.565881975614939847e+01
3.927500418721018072e+00,1.574445347166658848e+01
3.932500419435557948e+00,1.594701591919658767e+01
3.937500420150097824e+00,1.652353750885674799e+01
3.942500420864637256e+00,1.722439581787807583e+01
3.947500421579177132e+00,1.736680191873637114e+01
3.952500422293717008e+00,1.745555843579541033e+01
3.957500423008256440e+00,1.739347824648871210e+01
3.962500423722797205e+00,1.726312276257044687e+01
3.967500424437336193e+00,1.721336809223305409e+01
3.972500425151876513e+00,1.706621656354769812e+01
3.977500425866416389e+00,1.663036483970608970e+01
3.982500426580955377e+00,1.609066925105508972e+01
3.987500427295495697e+00,1.557366703533688224e+01
3.992500428010035574e+00,1.531884098613193146e+01
3.997500428724574562e+00,1.502371222630051761e+01
4.002500429439114882e+00,1.456979235642535286e+01
4.007500430153654314e+00,1.429226729270840224e+01
4.012500430868193746e+00,1.434294282361554451e+01
4.017500431582734066e+00,1.438226121144327863e+01
4.022500432297273498e+00,1.420121891693429461e+01
4.027500433011812930e+00,1.389153261490559998e+01
4.032500433726354139e+00,1.361309524894301148e+01
4.037500434440892683e+00,1.352454854116933802e+01
4.042500435155433003e+00,1.371333670318853137e+01
4.047500435869973323e+00,1.413073451225949384e+01
4.052500436584511867e+00,1.461388100271074109e+01
4.057500437299052187e+00,1.540836247375358425e+01
4.062500438013592508e+00,1.612045247972389461e+01
4.067500438728131051e+00,1.676996827539795731e+01
4.072500439442671372e+00,1.741121197810628018e+01
4.077500440157211692e+00,1.830017637828575516e+01
4.082500440871750236e+00,1.986829982229528468e+01
4.087500441586291444e+00,2.197591469874822678e+01
4.092500442300830876e+00,2.432615735062904605e+01
4.097500443015369420e+00,2.708743511630916601e+01
4.102500443729910629e+00,3.106057110494487006e+01
4.107500444444450061e+00,3.643155077851105261e+01
4.112500445158989493e+00,4.374387302602576710e+01
4.117500445873529813e+00,5.206688512449051132e+01
4.122500446588069245e+00,6.109670436975437724e+01
4.127500447302608677e+00,7.103692486362723457e+01
4.132500448017148997e+00,8.169154353927564216e+01
4.137500448731688429e+00,9.180636030770955358e+01
4.142500449446227861e+00,1.016145713195068652e+02
4.147500450160768182e+00,1.102639235058305758e+02
4.152500450875307614e+00,1.168098176057804949e+02
4.157500451589847934e+00,1.184577398070182994e+02
4.162500452304387366e+00,1.145747363551472517e+02
4.167500453018926798e+00,1.064080414834063504e+02
4.172500453733467118e+00,9.556908620173373947e+01
4.177500454448006550e+00,8.347353125575625654e+01
4.182500455162545983e+00,7.161156131624500176e+01
4.187500455877086303e+00,6.153592208849710232e+01
4.192500456591625735e+00,5.321674819319468952e+01
4.197500457306165167e+00,4.674157537344439106e+01
4.202500458020705487e+00,4.207858512368335369e+01
4.207500458735244919e+00,3.889218696507646200e+01
4.212500459449784351e+00,3.703895960762662298e+01
4.217500460164324672e+00,3.637767902635380324e+01
4.222500460878864104e+00,3.628677451598264270e+01
4.227500461593404424e+00,3.669960701126092317e+01
4.232500462307943856e+00,3.796698739750837603e+01
4.237500463022484176e+00,4.020269653015287759e+01
4.242500463737023608e+00,4.242633801793630255e+01
4.247500464451563040e+00,4.364454549830850283e+01
4.252500465166103361e+00,4.338052365305657077e+01
4.257500465880642793e+00,4.098435094268205603e+01
4.262500466595182225e+00,3.689381334664039969e+01
4.267500467309722545e+00,3.152133673638854816e+01
4.272500468024261977e+00,2.574226812539211551e+01
4.277500468738801409e+00,2.060028948748413313e+01
4.282500469453341729e+00,1.627430618460607548e+01
4.287500470167881161e+00,1.311772308985592872e+01
4.292500470882420593e+00,1.069781226327268087e+01
4.297500471596961802e+00,9.191953186216039740e+00
4.302500472311500346e+00,8.412657175431377254e+00
4.307500473026040666e+00,7.802531982661719212e+00
4.312500473740580986e+00,7.304734675511497244e+00
4.317500474455119530e+00,6.786738727292117801e+00
4.322500475169659850e+00,6.163563997495259628e+00
4.327500475884200171e+00,5.467478880232135907e+00
4.332500476598738715e+00,5.202736632362757518e+00
4.337500477313279035e+00,5.205469172326104399e+00
4.342500478027819355e+00,4.868998359440638524e+00
4.347500478742357899e+00,4.362036677501919257e+00
4.352500479456899107e+00,3.765741678142660476e+00
4.357500480171438539e+00,3.047318275759380413e+00
4.362500480885977083e+00,2.589834421344392013e+00
4.367500481600518292e+00,2.253378329047620809e+00
4.372500482315056836e+00,1.954648319933426137e+00
4.377500483029597156e+00,1.641928407920090649e+00
4.382500483744137476e+00,1.457777508764422691e+00
4.387500484458676020e+00,1.466599020146304611e+00
4.392500485173216340e+00,1.370491651747784090e+00
4.397500485887756660e+00,1.146792149865689225e+00
4.402500486602295204e+00,8.895975142107772626e-01
4.407500487316835525e+00,6.913567947861452012e-01
4.412500488031375845e+00,3.889038067349019911e-01
4.417500488745914389e+00,3.751718893340694194e-02
4.422500489460455597e+00,2.963378290280616056e-02
4.427500490174995029e+00,0.000000000000000000e+00
4.432500490889533573e+00,1.135746534478130343e-01
4.437500491604074782e+00,2.248612337328950161e-01
4.442500492318614214e+00,1.843654281364024428e-01
4.447500493033153646e+00,1.557643101915004991e-01
4.452500493747693966e+00,3.629156170282499261e-01
4.457500494462233398e+00,9.491717142213929037e-01
4.462500495176772830e+00,1.765770709073535727e+00
4.467500495891313150e+00,2.909861352961002012e+00
4.472500496605852582e+00,4.160995961258834086e+00
4.477500497320392014e+00,5.392720989516135432e+00
4.482500498034932335e+00,7.071692023691639406e+00
4.487500498749471767e+00,8.899183789921210064e+00
4.492500499464012087e+00,1.064821784006829830e+01
4.497500500178551519e+00,1.228645683883752326e+01
4.502500500893091839e+00,1.357114474931961468e+01
4.507500501607631271e+00,1.524554848338863167e+01
4.512500502322170703e+00,1.729567176888940594e+01
4.517500503036711024e+00,1.971133303050123686e+01
4.522500503751250456e+00,2.148183189364374357e+01
4.527500504465789888e+00,2.236602975088925405e+01
4.532500505180330208e+00,2.142784170532155485e+01
4.537500505894869640e+00,1.895954589670986934e+01
4.542500506609409072e+00,1.563962041557675775e+01
4.547500507323949392e+00,1.234698280515061697e+01
4.552500508038488825e+00,9.751444162931761639e+00
4.557500508753028257e+00,7.601306796944811595e+00
4.562500509467568577e+00,6.055548063630226352e+00
4.567500510182108009e+00,4.930463434255102584e+00
4.572500510896648329e+00,4.646047110147037529e+00
4.577500511611187761e+00,4.801370440667369621e+00
4.582500512325727193e+00,5.407980360713509072e+00
4.587500513040267514e+00,6.201575416109278649e+00
4.592500513754806946e+00,7.529792628843097191e+00
4.597500514469346378e+00,9.257511452149969955e+00
4.602500515183886698e+00,1.110883375097830594e+01
4.607500515898426130e+00,1.302978521801071565e+01
4.612500516612965562e+00,1.478069208265054613e+01
4.617500517327505882e+00,1.650924019305381307e+01
4.622500518042045314e+00,1.810081681300692935e+01
4.627500518756584746e+00,1.927531237974187661e+01
4.632500519471125955e+00,1.975884291604631926e+01
4.637500520185664499e+00,1.981237551854741241e+01
4.642500520900204819e+00,1.951163558427765565e+01
4.647500521614745139e+00,1.865357043372205226e+01
4.652500522329283683e+00,1.718823407644600820e+01
4.657500523043824003e+00,1.522864438883118510e+01
4.662500523758364324e+00,1.312854190314038760e+01
4.667500524472902868e+00,1.129626309853591692e+01
4.672500525187443188e+00,9.863502608110934489e+00
4.677500525901983508e+00,8.821970933735997278e+00
4.682500526616522052e+00,8.262225012468775276e+00
4.687500527331063260e+00,7.957591556396721444e+00
4.692500528045602692e+00,7.941040831938494193e+00
4.697500528760141236e+00,8.346953017267082942e+00
4.702500529474682445e+00,8.966324501138217329e+00
4.707500530189221877e+00,9.844637755942017066e+00
4.712500530903761309e+00,1.111123755840509375e+01
4.717500531618301629e+00,1.252425286459401832e+01
4.722500532332841061e+00,1.396357776694804897e+01
4.727500533047380493e+00,1.530709219740600702e+01
4.732500533761920813e+00,1.665029693717377768e+01
4.737500534476460246e+00,1.834131727883618623e+01
4.742500535190999678e+00,1.994736420799677035e+01
4.747500535905539998e+00,2.111572683492357783e+01
4.752500536620079430e+00,2.183280559767439399e+01
4.757500537334618862e+00,2.180674165662867381e+01
4.762500538049159182e+00,2.154239858394419116e+01
4.767500538763698614e+00,2.083812750027726679e+01
4.772500539478238046e+00,1.984393357868992780e+01
4.777500540192778367e+00,1.849842672824490819e+01
4.782500540907317799e+00,1.720829547096349188e+01
4.787500541621858119e+00,1.633487920744801158e+01
4.792500542336397551e+00,1.575099194735554420e+01
4.797500543050936983e+00,1.583750434064762658e+01
4.802500543765477303e+00,1.616940935142235958e+01
4.807500544480016735e+00,1.706083568564577035e+01
4.812500545194556167e+00,1.804002337709727044e+01
4.817500545909096488e+00,1.898552373853885911e+01
4.822500546623636808e+00,2.006894838515472657e+01
4.827500547338175352e+00,2.112325536736642562e+01
4.832500548052715672e+00,2.207152114349065641e+01
4.837500548767255992e+00,2.321032681020960808e+01
4.842500549481794536e+00,2.419672709671027633e+01
4.847500550196334856e+00,2.546441857758264860e+01
4.852500550910875177e+00,2.649946599117532742e+01
4.857500551625414609e+00,2.764535595053644101e+01
4.862500552339954041e+00,2.880960094732176913e+01
4.867500553054494361e+00,2.993194003538940251e+01
4.872500553769033793e+00,3.088640792259900536e+01
4.877500554483574113e+00,3.229218702159431587e+01
4.882500555198113545e+00,3.366982693222439593e+01
4.887500555912652977e+00,3.478465874818954262e+01
4.892500556627193298e+00,3.607098939297753759e+01
4.897500557341732730e+00,3.736556109252217084e+01
4.902500558056272162e+00,3.873973521309568468e+01
4.907500558770812482e+00,3.964918098201235352e+01
4.912500559485352802e+00,4.061234228450643968e+01
4.917500560199891346e+00,4.201427067154344286e+01
4.922500560914431667e+00,4.392815856295140975e+01
4.927500561628971987e+00,4.617152210874519369e+01
4.932500562343510531e+00,4.823128053483293343e+01
4.937500563058050851e+00,5.011330448286327055e+01
4.942500563772590283e+00,5.240818139108415608e+01
4.947500564487130603e+00,5.484361417598358912e+01
4.952500565201670035e+00,5.738049056823047067e+01
4.957500565916209467e+00,5.996007549548949100e+01
4.962500566630749788e+00,6.246351425624828835e+01
4.967500567345289220e+00,6.485785913114648338e+01
4.972500568059828652e+00,6.715404667790238591e+01
4.977500568774368972e+00,6.968634719420117563e+01
4.982500569488909292e+00,7.272677511808882400e+01
4.987500570203447836e+00,7.583137198695874304e+01
4.992500570917988156e+00,7.960989027544081864e+01
4.997500571632528477e+00,8.387365106142067361e+01
5.002500572347067020e+00,8.844032307877375843e+01
5.007500573061607341e+00,9.348350157479137579e+01
5.012500573776147661e+00,9.959591021447442927e+01
5.017500574490687093e+00,1.068948393129609258e+02
5.022500575205226525e+00,1.156815696636496114e+02
5.027500575919766845e+00,1.265794950967954264e+02
5.032500576634306277e+00,1.410905494814645067e+02
5.037500577348845709e+00,1.577585062860816265e+02
5.042500578063386030e+00,1.763585537737452000e+02
5.047500578777925462e+00,1.962600574533981330e+02
5.052500579492465782e+00,2.165410620329566882e+02
5.057500580207005214e+00,2.366525370247781552e+02
5.062500580921544646e+00,2.567645376343350563e+02
5.067500581636084966e+00,2.760443114496704879e+02
5.072500582350624398e+00,2.951353023476461885e+02
5.077500583065163831e+00,3.136844332087914040e+02
5.082500583779704151e+00,3.283825111907391374e+02
5.087500584494244471e+00,3.346978703063512057e+02
5.092500585208783015e+00,3.278495159549741516e+02
5.097500585923323335e+00,3.071583212114965136e+02
5.102500586637863655e+00,2.774146415724488293e+02
5.107500587352402199e+00,2.421498603661601123e+02
5.112500588066942520e+00,2.078199214675984763e+02
5.117500588781482840e+00,1.790450753921294904e+02
5.122500589496022272e+00,1.582061927720741892e+02
5.127500590210561704e+00,1.430567333508520846e+02
5.132500590925102024e+00,1.315317059439207128e+02
5.137500591639641456e+00,1.232022888001050660e+02
5.142500592354181776e+00,1.174037592890974224e+02
5.147500593068720320e+00,1.129607746631784835e+02
5.152500593783260641e+00,1.098333986685447599e+02
5.157500594497800961e+00,1.079553278636714140e+02
5.162500595212339505e+00,1.069354907404056121e+02
5.167500595926879825e+00,1.068574862005305590e+02
5.172500596641420145e+00,1.078432737413115206e+02
5.177500597355959577e+00,1.092461971371421896e+02
5.182500598070499009e+00,1.108475176426655935e+02
5.187500598785039330e+00,1.122205802525438116e+02
5.192500599499578762e+00,1.127923066213793390e+02
5.197500600214118194e+00,1.125478764602023034e+02
5.202500600928658514e+00,1.111003686497507488e+02
5.207500601643197946e+00,1.079956928810981367e+02
5.212500602357738266e+00,1.035863384349507896e+02
5.217500603072277698e+00,9.786465665235056122e+01
5.222500603786817130e+00,9.060015951866324713e+01
5.227500604501357451e+00,8.269361512256102742e+01
5.232500605215896883e+00,7.528099052711985451e+01
5.237500605930436315e+00,6.841362755106644045e+01
5.242500606644976635e+00,6.226033017112854395e+01
5.247500607359516955e+00,5.705533205132854846e+01
5.252500608074055499e+00,5.272988833985999690e+01
5.257500608788595819e+00,4.942988431166901364e+01
5.262500609503136140e+00,4.670629557353066730e+01
5.267500610217674684e+00,4.462581428475385792e+01
5.272500610932215004e+00,4.263672440132449992e+01
5.277500611646755324e+00,4.075966705676404445e+01
5.282500612361294756e+00,3.918636492736504806e+01
5.287500613075834188e+00,3.793498722242640042e+01
5.292500613790374508e+00,3.721275954753730275e+01
5.297500614504913941e+00,3.642048050613772148e+01
5.302500615219453373e+00,3.530398043975543487e+01
5.307500615933993693e+00,3.411293490456978361e+01
5.312500616648533125e+00,3.299597575539672789e+01
5.317500617363073445e+00,3.206902000310981293e+01
5.322500618077612877e+00,3.125676151386198853e+01
5.327500618792152309e+00,3.046900157549271171e+01
5.332500619506692630e+00,2.970300485455885564e+01
5.337500620221232062e+00,2.907581751156970995e+01
5.342500620935771494e+00,2.857332115606783418e+01
5.347500621650311814e+00,2.816922088373928545e+01
5.352500622364851246e+00,2.801480357719196945e+01
5.357500623079390678e+00,2.834955191963268817e+01
5.362500623793930998e+00,2.920930479525776491e+01
5.367500624508470430e+00,3.015935055097054374e+01
5.372500625223009862e+00,3.092244823661849296e+01
5.377500625937550183e+00,3.151438668702553514e+01
5.382500626652089615e+00,3.182366591847551263e+01
5.387500627366629935e+00,3.190483208965139283e+01
5.392500628081169367e+00,3.159316256023123515e+01
5.397500628795708799e+00,3.095275549049608799e+01
5.402500629510249119e+00,2.987925200930141045e+01
5.407500630224788551e+00,2.811500345040406046e+01
5.412500630939327984e+00,2.610869049309059164e+01
5.417500631653868304e+00,2.429947233209787782e+01
5.422500632368408624e+00,2.232163755652112513e+01
5.427500633082947168e+00,2.021200161075182677e+01
5.432500633797487488e+00,1.817519610111952488e+01
5.437500634512027808e+00,1.669249447948584475e+01
5.442500635226567240e+00,1.560701712137023378e+01
5.447500635941106673e+00,1.477653283962399655e+01
5.452500636655646993e+00,1.427575990982018084e+01
5.457500637370186425e+00,1.403241343353511184e+01
5.462500638084725857e+00,1.421953932272583643e+01
5.467500638799266177e+00,1.471031776652864664e+01
5.472500639513805609e+00,1.502197192266118009e+01
5.477500640228345929e+00,1.509393564203821825e+01
5.482500640942885362e+00,1.525306342970691276e+01
5.487500641657424794e+00,1.543717170461400201e+01
5.492500642371965114e+00,1.605682468827797038e+01
5.497500643086504546e+00,1.681683709033626428e+01
