1.502500072169232093e+00,7.072734265900635364e+00
1.507500072883772191e+00,8.462988258970483457e+00
1.512500073598311845e+00,9.516850216818454555e+00
1.517500074312851721e+00,1.047927942281637570e+01
1.522500075027391375e+00,1.184447160333064630e+01
1.527500075741931251e+00,1.320311845931655625e+01
1.532500076456470905e+00,1.407654463911592302e+01
1.537500077171010782e+00,1.450807737708032619e+01
1.542500077885550436e+00,1.479650597575437132e+01
1.547500078600090090e+00,1.534486721560881506e+01
1.552500079314630188e+00,1.600685039349889394e+01
1.557500080029169620e+00,1.676743087657143860e+01
1.562500080743709496e+00,1.760456444701617329e+01
1.567500081458249372e+00,1.801756865836466659e+01
1.572500082172789027e+00,1.787578617404869874e+01
1.577500082887328903e+00,1.774133868196827279e+01
1.582500083601868335e+00,1.739799653155762371e+01
1.587500084316408433e+00,1.679664382968246628e+01
1.592500085030948087e+00,1.646024671021370978e+01
1.597500085745487741e+00,1.581484699407934613e+01
1.602500086460027617e+00,1.572050702104581887e+01
1.607500087174567494e+00,1.569829940323518258e+01
1.612500087889107148e+00,1.519455874139259777e+01
1.617500088603646802e+00,1.469568876094297138e+01
1.622500089318186678e+00,1.463596871549134448e+01
1.627500090032726332e+00,1.487484831558521137e+01
1.632500090747266430e+00,1.519594065539905614e+01
1.637500091461805862e+00,1.530250561780650287e+01
1.642500092176345738e+00,1.431210930472661857e+01
1.647500092890885615e+00,1.260696584039521895e+01
1.652500093605425047e+00,1.135096618623941822e+01
1.657500094319965145e+00,1.068261027595247015e+01
1.662500095034504799e+00,1.051847381842327422e+01
1.667500095749044675e+00,1.022203154587305107e+01
1.672500096463584329e+00,9.795887444303275515e+00
1.677500097178123983e+00,9.286315774858337591e+00
1.682500097892663860e+00,8.950558442739634302e+00
1.687500098607203736e+00,8.550312551567913033e+00
1.692500099321743390e+00,8.095657410771138984e+00
1.697500100036283044e+00,7.479270849518798059e+00
1.702500100750823142e+00,7.345051048138543592e+00
1.707500101465362574e+00,7.327221767878825176e+00
1.712500102179902450e+00,7.359689045425284348e+00
1.717500102894442326e+00,7.625290465453019806e+00
1.722500103608981981e+00,7.515420409655632739e+00
1.727500104323521857e+00,6.945398713891222542e+00
1.732500105038061289e+00,6.537209930715448536e+00
1.737500105752601387e+00,6.258480384800861884e+00
1.742500106467141041e+00,6.843101956792111196e+00
1.747500107181680695e+00,8.443697908099068172e+00
1.752500107896220571e+00,1.062176570756560068e+01
1.757500108610760448e+00,1.328948001431405146e+01
1.762500109325300102e+00,1.696961089488962671e+01
1.767500110039839756e+00,2.287169570244361694e+01
1.772500110754379632e+00,3.301108815311135913e+01
1.777500111468919286e+00,4.942541951169340564e+01
1.782500112183459384e+00,7.254206075383467578e+01
1.787500112897998816e+00,9.520278077305539455e+01
1.792500113612538692e+00,1.065202527322513788e+02
1.797500114327078569e+00,1.022586998194234411e+02
1.802500115041618223e+00,8.310315184319023274e+01
1.807500115756158099e+00,5.791921086144196806e+01
1.812500116470697753e+00,3.888635196618304235e+01
1.817500117185237629e+00,2.687011566987820288e+01
1.822500117899777283e+00,1.888002416869397848e+01
1.827500118614316937e+00,1.370288212716718590e+01
1.832500119328856814e+00,1.033368488469238855e+01
1.837500120043396690e+00,7.784578419766887691e+00
1.842500120757936344e+00,5.975728493869382874e+00
1.847500121472475998e+00,4.891509619505200135e+00
1.852500122187016096e+00,4.388335873901894502e+00
1.857500122901555528e+00,4.107838392341818690e+00
1.862500123616095404e+00,4.173123916132908562e+00
1.867500124330635058e+00,4.272026748732002943e+00
1.872500125045175157e+00,4.500736688384563422e+00
1.877500125759714811e+00,5.138152058372440933e+00
1.882500126474254243e+00,5.930944407136621521e+00
1.887500127188794341e+00,6.681754311872339258e+00
1.892500127903333995e+00,7.235763646920418068e+00
1.897500128617873427e+00,7.402936797430015758e+00
1.902500129332413525e+00,7.491773103445780180e+00
1.907500130046953402e+00,8.141155007077145456e+00
1.912500130761493056e+00,9.048070223066304152e+00
1.917500131476032710e+00,9.996725510874966858e+00
1.922500132190572586e+00,1.072069877681190064e+01
1.927500132905112240e+00,1.134550499447846050e+01
1.932500133619652338e+00,1.231562867791200233e+01
1.937500134334191770e+00,1.377645137422138077e+01
1.942500135048731869e+00,1.510800410735845389e+01
1.947500135763271523e+00,1.626270541755422983e+01
1.952500136477810955e+00,1.680945926400352164e+01
1.957500137192351053e+00,1.752874780055833526e+01
1.962500137906890707e+00,1.834186111427914057e+01
1.967500138621430139e+00,1.887486207137408201e+01
1.972500139335970237e+00,1.935555897560368521e+01
1.977500140050510113e+00,2.001090547274873188e+01
1.982500140765049768e+00,2.058186261324624411e+01
1.987500141479589422e+00,2.127530315112448989e+01
1.992500142194129298e+00,2.231351105775064525e+01
1.997500142908669396e+00,2.333310730507662356e+01
2.002500143623208384e+00,2.394645123479574522e+01
2.007500144337748704e+00,2.399551629270291642e+01
2.012500145052288580e+00,2.378217567513451058e+01
2.017500145766828012e+00,2.387249310233437427e+01
2.022500146481367889e+00,2.417933390429175233e+01
2.027500147195907765e+00,2.392183767881601852e+01
2.032500147910447641e+00,2.324550496325787208e+01
2.037500148624987073e+00,2.263171261714131788e+01
2.042500149339526949e+00,2.253171650945671445e+01
2.047500150054066825e+00,2.298469351256801474e+01
2.052500150768606257e+00,2.427850810547232641e+01
2.057500151483146134e+00,2.683408127195417592e+01
2.062500152197686010e+00,3.058982043387254635e+01
2.067500152912225886e+00,3.497885333950284803e+01
2.072500153626765762e+00,3.676838353388552605e+01
2.077500154341305194e+00,3.537634075102698716e+01
2.082500155055845070e+00,3.091764556389148311e+01
2.087500155770384946e+00,2.576017862421235805e+01
2.092500156484924378e+00,2.210946694329800266e+01
2.097500157199464255e+00,2.001671001656677618e+01
2.102500157914004575e+00,1.842089408282561180e+01
2.107500158628544007e+00,1.732728944016764672e+01
2.112500159343083439e+00,1.639976612122711686e+01
2.117500160057623759e+00,1.566617719536310460e+01
2.122500160772163191e+00,1.515992981496731318e+01
2.127500161486702623e+00,1.457968370315813900e+01
2.132500162201242500e+00,1.402036922153183696e+01
2.137500162915782820e+00,1.331998912930259849e+01
2.142500163630322252e+00,1.258040105531404151e+01
2.147500164344861684e+00,1.187138854425234058e+01
2.152500165059402004e+00,1.125290837237088226e+01
2.157500165773941436e+00,1.058270773624474259e+01
2.162500166488480868e+00,1.012530252549277066e+01
2.167500167203021189e+00,9.975897001732164426e+00
2.172500167917561065e+00,9.648823741187811720e+00
2.177500168632100497e+00,9.387022395644407879e+00
2.182500169346640373e+00,9.512808736585725455e+00
2.187500170061180249e+00,9.647784324318081417e+00
2.192500170775719681e+00,9.535163169264592398e+00
2.197500171490259557e+00,9.124946293634934591e+00
2.202500172204799433e+00,8.627480082143392792e+00
2.207500172919339310e+00,8.137144027240992727e+00
2.212500173633879186e+00,8.012386130584218336e+00
2.217500174348418618e+00,8.055135745895995569e+00
2.222500175062958494e+00,7.789062857357123448e+00
2.227500175777497926e+00,7.571089311110654307e+00
2.232500176492037802e+00,7.166645163938198948e+00
2.237500177206577678e+00,6.972294416690260732e+00
2.242500177921117555e+00,7.097155913716278519e+00
2.247500178635657431e+00,7.235217796969891424e+00
2.252500179350196863e+00,7.091607038227550674e+00
2.257500180064736739e+00,6.769277672464454554e+00
2.262500180779277059e+00,6.678678767545306982e+00
2.267500181493816047e+00,7.240909942733424032e+00
2.272500182208355923e+00,7.556819269997561150e+00
2.277500182922896244e+00,7.589101663589133295e+00
2.282500183637435676e+00,7.414435111403861356e+00
2.287500184351975108e+00,7.215332482504607015e+00
2.292500185066515428e+00,6.889791186193178874e+00
2.297500185781055304e+00,6.270745077167021009e+00
2.302500186495594292e+00,5.955440677068679634e+00
2.307500187210134612e+00,5.902879802276231658e+00
2.312500187924674488e+00,5.831402572540355322e+00
2.317500188639213921e+00,5.848875400080657982e+00
2.322500189353753797e+00,5.893578441562681292e+00
2.327500190068293673e+00,5.863111848890582678e+00
2.332500190782833549e+00,5.618851336398165586e+00
2.337500191497372981e+00,5.504747009746097319e+00
2.342500192211912857e+00,5.519625612781339896e+00
2.347500192926452733e+00,5.805685401336461382e+00
2.352500193640992165e+00,6.296414845146443895e+00
2.357500194355532042e+00,6.526071388349407698e+00
2.362500195070071918e+00,6.515759331070796634e+00
2.367500195784611794e+00,6.533683736391196817e+00
2.372500196499151670e+00,6.524105509176933992e+00
2.377500197213691102e+00,6.283946621388622589e+00
2.382500197928230978e+00,6.009695630349483508e+00
2.387500198642770854e+00,5.960127405987634575e+00
2.392500199357310287e+00,6.171085846352809767e+00
2.397500200071850163e+00,6.334939444687051946e+00
2.402500200786390039e+00,6.602064444376082974e+00
2.407500201500929915e+00,6.933475454832262130e+00
2.412500202215469347e+00,7.372615002915040350e+00
2.417500202930009223e+00,7.540073992546410864e+00
2.422500203644549099e+00,7.541916900647265720e+00
2.427500204359088531e+00,7.306321182051419783e+00
2.432500205073628408e+00,6.984028930267982105e+00
2.437500205788168728e+00,7.172498489412532763e+00
2.442500206502708160e+00,7.430003575893579182e+00
2.447500207217247592e+00,7.615049782904463882e+00
2.452500207931787912e+00,7.409415352488110784e+00
2.457500208646327344e+00,7.204625785482789979e+00
2.462500209360866776e+00,7.167444564744414492e+00
2.467500210075407097e+00,7.254033311954003693e+00
2.472500210789946973e+00,7.252615362387928144e+00
2.477500211504486405e+00,7.069211849447697205e+00
2.482500212219026281e+00,7.025767925900538557e+00
2.487500212933566157e+00,6.573318047614009174e+00
2.492500213648105589e+00,6.219842419394524313e+00
2.497500214362645465e+00,6.235711331443667405e+00
2.502500215077185342e+00,6.704496927447735288e+00
2.507500215791725218e+00,7.283105041023986814e+00
2.512500216506264650e+00,7.703819873953761999e+00
2.517500217220804526e+00,8.024792277927701889e+00
2.522500217935344402e+00,8.213383260894204341e+00
2.527500218649883834e+00,8.239608811760774643e+00
2.532500219364423710e+00,8.249815437980203114e+00
2.537500220078963586e+00,8.368163320319183640e+00
2.542500220793503463e+00,8.345430024262327606e+00
2.547500221508043339e+00,8.281300539534299787e+00
2.552500222222582771e+00,8.069801850868259407e+00
2.557500222937122647e+00,7.812449911110547873e+00
2.562500223651662967e+00,7.784802376041966454e+00
2.567500224366201955e+00,7.701717393877800077e+00
2.572500225080741831e+00,7.871406340078465291e+00
2.577500225795282152e+00,8.223998270902029617e+00
2.582500226509821584e+00,8.369920050783036913e+00
2.587500227224361016e+00,8.346997182828488349e+00
2.592500227938901336e+00,8.121979688139617792e+00
2.597500228653441212e+00,7.835781364032925467e+00
2.602500229367980644e+00,7.639020555929903367e+00
2.607500230082520076e+00,7.769778946819826615e+00
2.612500230797060397e+00,7.880994135780042598e+00
2.617500231511599829e+00,7.987847333679951589e+00
2.622500232226139261e+00,7.872365414347882506e+00
2.627500232940679581e+00,7.856675309485581238e+00
2.632500233655219457e+00,7.940973979748719103e+00
2.637500234369758889e+00,8.058350192464274642e+00
2.642500235084298765e+00,8.203263525905242659e+00
2.647500235798838641e+00,8.328700131375853744e+00
2.652500236513378074e+00,8.201641483571734170e+00
2.657500237227917950e+00,7.980365406327223354e+00
2.662500237942457826e+00,7.789153104219053603e+00
2.667500238656997702e+00,7.857022073070083934e+00
2.672500239371537578e+00,8.097163356155363090e+00
2.677500240086077010e+00,8.441566788682621336e+00
2.682500240800616886e+00,8.665239748129920372e+00
2.687500241515156763e+00,8.925086549111028944e+00
2.692500242229696195e+00,9.224569088235341496e+00
2.697500242944236071e+00,9.414988582716262044e+00
2.702500243658775947e+00,9.461965062880494770e+00
2.707500244373315823e+00,9.333895624441026939e+00
2.712500245087855255e+00,9.233064047951870634e+00
2.717500245802395131e+00,9.439970633105986053e+00
2.722500246516935007e+00,9.648567794745474657e+00
2.727500247231474440e+00,9.642956840511260452e+00
2.732500247946014316e+00,9.748559846144644325e+00
2.737500248660554636e+00,1.011983938234828884e+01
2.742500249375094068e+00,1.032300115179975819e+01
2.747500250089633500e+00,1.035067294452255737e+01
2.752500250804173820e+00,1.044099643504870301e+01
2.757500251518713252e+00,1.081230735848669156e+01
2.762500252233252684e+00,1.154622266900685190e+01
2.767500252947793005e+00,1.201333023738567363e+01
2.772500253662332881e+00,1.231786048214291895e+01
2.777500254376872313e+00,1.249446371356384589e+01
2.782500255091412189e+00,1.269644255584597659e+01
2.787500255805952065e+00,1.337992553134984064e+01
2.792500256520491497e+00,1.438132067414630910e+01
2.797500257235031373e+00,1.553227524707364182e+01
2.802500257949571250e+00,1.633643355449811452e+01
2.807500258664111126e+00,1.680870085858560969e+01
2.812500259378650558e+00,1.740483932682019486e+01
2.817500260093190434e+00,1.853361402834929095e+01
2.822500260807730310e+00,1.994607516079429388e+01
2.827500261522270186e+00,2.142241718135562678e+01
2.832500262236809618e+00,2.308539433439938193e+01
2.837500262951349495e+00,2.497789633529129105e+01
2.842500263665889371e+00,2.719582190579137659e+01
2.847500264380429247e+00,2.990587052233559007e+01
2.852500265094968679e+00,3.329415081470665427e+01
2.857500265809508555e+00,3.762681899399876784e+01
2.862500266524048875e+00,4.318318432159549047e+01
2.867500267238588307e+00,5.003579944142671820e+01
2.872500267953127739e+00,5.840409807550469168e+01
2.877500268667668060e+00,6.901068774875432155e+01
2.882500269382207492e+00,8.281493133220010350e+01
2.887500270096746924e+00,1.016649245822454191e+02
2.892500270811286800e+00,1.292977707990903582e+02
2.897500271525826676e+00,1.714832575847547105e+02
2.902500272240366552e+00,2.358236310132110134e+02
2.907500272954905984e+00,3.379408820075443600e+02
2.912500273669446305e+00,4.947498786643772064e+02
2.917500274383985737e+00,7.086549910099313365e+02
2.922500275098525169e+00,9.484875910002303954e+02
2.927500275813065489e+00,1.145491159943172306e+03
2.932500276527604921e+00,1.223678832444040609e+03
2.937500277242144797e+00,1.141703452558041590e+03
2.942500277956684673e+00,9.423567803334681230e+02
2.947500278671224549e+00,7.147361788236081566e+02
2.952500279385763982e+00,5.056882786377157117e+02
2.957500280100304302e+00,3.562206600701044863e+02
2.962500280814843734e+00,2.564551612058015735e+02
2.967500281529383166e+00,1.908832795320598734e+02
2.972500282243923486e+00,1.460490027490864122e+02
2.977500282958462918e+00,1.147146718073306602e+02
2.982500283673002794e+00,9.268715278266404312e+01
2.987500284387542226e+00,7.662459957186769088e+01
2.992500285102082547e+00,6.464265506468234435e+01
2.997500285816621979e+00,5.574322311663723895e+01
3.002500286531161411e+00,4.910478226992404416e+01
3.007500287245701731e+00,4.397887012856693900e+01
3.012500287960241163e+00,3.973915562421376535e+01
3.017500288674781039e+00,3.632516460224138655e+01
3.022500289389320915e+00,3.344909744887172565e+01
3.027500290103860792e+00,3.101889427688189471e+01
3.032500290818400224e+00,2.924818975974915247e+01
3.037500291532940100e+00,2.804553432321739592e+01
3.042500292247479976e+00,2.712785850092336659e+01
3.047500292962019408e+00,2.628313772947467442e+01
3.052500293676559728e+00,2.541693165524611686e+01
3.057500294391099160e+00,2.461570810914099638e+01
3.062500295105639037e+00,2.399742904424431345e+01
3.067500295820178913e+00,2.322006494026902601e+01
3.072500296534718789e+00,2.238439631737696800e+01
3.077500297249258221e+00,2.163405035742050586e+01
3.082500297963798097e+00,2.095268107986908035e+01
3.087500298678337973e+00,2.049624473257927093e+01
3.092500299392877405e+00,1.995683035834304064e+01
3.097500300107417281e+00,1.925290637706336838e+01
3.102500300821957158e+00,1.889342581050073022e+01
3.107500301536497034e+00,1.881852452460202585e+01
3.112500302251036466e+00,1.912559544838700276e+01
3.117500302965576342e+00,1.956059106431968075e+01
3.122500303680116218e+00,1.981947604516176398e+01
3.127500304394655650e+00,1.960914034004406403e+01
3.132500305109195970e+00,1.921026538553667251e+01
3.137500305823735403e+00,1.903799305109225770e+01
3.142500306538275279e+00,1.880839902784816786e+01
3.147500307252815155e+00,1.854212442055182919e+01
3.152500307967354587e+00,1.844151197815710930e+01
3.157500308681894463e+00,1.825672547871664619e+01
3.162500309396434339e+00,1.811878805958440353e+01
3.167500310110974215e+00,1.820523163160237345e+01
3.172500310825513647e+00,1.840592939875398315e+01
3.177500311540053524e+00,1.856589370984966081e+01
3.182500312254593400e+00,1.853373797270796786e+01
3.187500312969132832e+00,1.834289003318258438e+01
3.192500313683672708e+00,1.805570838621690655e+01
3.197500314398212584e+00,1.788704784978983753e+01
3.202500315112752460e+00,1.829614799276600934e+01
3.207500315827291892e+00,1.888400251977657263e+01
3.212500316541832213e+00,1.918223866586339454e+01
3.217500317256371645e+00,1.936335279229547268e+01
3.222500317970911521e+00,1.929365838472824635e+01
3.227500318685451397e+00,1.922386832870330409e+01
3.232500319399990829e+00,1.928796575936900126e+01
3.237500320114530705e+00,1.918423433502516673e+01
3.242500320829070581e+00,1.925594671379445799e+01
3.247500321543610458e+00,1.958807475880564652e+01
3.252500322258149890e+00,1.989184154025440421e+01
3.257500322972690210e+00,2.011574428472442833e+01
3.262500323687229642e+00,2.036379778349601111e+01
3.267500324401769074e+00,2.044762789850761919e+01
3.272500325116308950e+00,2.037160950191048414e+01
3.277500325830848826e+00,2.046458034335734055e+01
3.282500326545388702e+00,2.079301854033656127e+01
3.287500327259928135e+00,2.127310312514612178e+01
3.292500327974468455e+00,2.173382439655489407e+01
3.297500328689007887e+00,2.212221463278962119e+01
3.302500329403547319e+00,2.240447113850660799e+01
3.307500330118087639e+00,2.244303144020022955e+01
3.312500330832627071e+00,2.246489604020320030e+01
3.317500331547166947e+00,2.272395141482678582e+01
3.322500332261706824e+00,2.339623368633021983e+01
3.327500332976246700e+00,2.410824893551102832e+01
3.332500333690786132e+00,2.468572198109450255e+01
3.337500334405326008e+00,2.518667743451084107e+01
3.342500335119865884e+00,2.544727710232939444e+01
3.347500335834405316e+00,2.559741446876796545e+01
3.352500336548945636e+00,2.605732724461017824e+01
3.357500337263485068e+00,2.650662202549528956e+01
3.362500337978024945e+00,2.682574157716140917e+01
3.367500338692564377e+00,2.719288866365502599e+01
3.372500339407104697e+00,2.779151506108956937e+01
3.377500340121644129e+00,2.855015920421209330e+01
3.382500340836183561e+00,2.949547353023808682e+01
3.387500341550723881e+00,3.084530309221474909e+01
3.392500342265263313e+00,3.246532008058755991e+01
3.397500342979803190e+00,3.450653603031275907e+01
3.402500343694343066e+00,3.709329010218738176e+01
3.407500344408882942e+00,4.049530718839838528e+01
3.412500345123422374e+00,4.494349381103961605e+01
3.417500345837962250e+00,5.077034949914184381e+01
3.422500346552502126e+00,5.760836156414291054e+01
3.427500347267041558e+00,6.571742819566668459e+01
3.432500347981581879e+00,7.482140631316212875e+01
3.437500348696121311e+00,8.277931517926123206e+01
3.442500349410661187e+00,8.626499338227415592e+01
3.447500350125201063e+00,8.395237105306176773e+01
3.452500350839740495e+00,7.663204701354703730e+01
3.457500351554280371e+00,6.627885469475569380e+01
3.462500352268820247e+00,5.651182307439023589e+01
3.467500352983360123e+00,4.926071110072825832e+01
3.472500353697899556e+00,4.423957947003901836e+01
3.477500354412439432e+00,4.104636948407517139e+01
3.482500355126979308e+00,3.909326193686086981e+01
3.487500355841518740e+00,3.775694566944963526e+01
3.492500356556058616e+00,3.656120423991484358e+01
3.497500357270598492e+00,3.562512759333958456e+01
3.502500357985138368e+00,3.511513842907180560e+01
3.507500358699677800e+00,3.505779737657269379e+01
3.512500359414218121e+00,3.519026686267119430e+01
3.517500360128757553e+00,3.522239607256591398e+01
3.522500360843297429e+00,3.486305761981401474e+01
3.527500361557837305e+00,3.431431868897300319e+01
3.532500362272376737e+00,3.385466247121235028e+01
3.537500362986916613e+00,3.366406140656516754e+01
3.542500363701456489e+00,3.387619276016204140e+01
3.547500364415996366e+00,3.431662831955992488e+01
3.552500365130535798e+00,3.482415397488256303e+01
3.557500365845075674e+00,3.546002875208489513e+01
3.562500366559615550e+00,3.581627338723308185e+01
3.567500367274154982e+00,3.602827408633032746e+01
3.572500367988694858e+00,3.624566875584559966e+01
3.577500368703234734e+00,3.655742634847723593e+01
3.582500369417774611e+00,3.664684564250774201e+01
3.587500370132314043e+00,3.644585211686262483e+01
3.592500370846854363e+00,3.578599892773098645e+01
3.597500371561393795e+00,3.486740001409270917e+01
3.602500372275933227e+00,3.404153649425774120e+01
3.607500372990473547e+00,3.329456355069106621e+01
3.612500373705012979e+00,3.268026331092562486e+01
3.617500374419552855e+00,3.209256682027637453e+01
3.622500375134092732e+00,3.170204696181610871e+01
3.627500375848632608e+00,3.133091845643025408e+01
3.632500376563172040e+00,3.095535719880990655e+01
3.637500377277712360e+00,3.056319679070634265e+01
3.642500377992251792e+00,3.027053620700331749e+01
3.647500378706791224e+00,2.985549223717367795e+01
3.652500379421331100e+00,2.928423097947285214e+01
3.657500380135870977e+00,2.856723004802393007e+01
3.662500380850410853e+00,2.796383789903939032e+01
3.667500381564950285e+00,2.757928921173248682e+01
3.672500382279490605e+00,2.750050811102454418e+01
3.677500382994030037e+00,2.740279762071929781e+01
3.682500383708569469e+00,2.728064410691411013e+01
3.687500384423109789e+00,2.714016112570368477e+01
3.692500385137649221e+00,2.674509162049707811e+01
3.697500385852189098e+00,2.599296759003345869e+01
3.702500386566728974e+00,2.540967795952485631e+01
3.707500387281268850e+00,2.510115925453311547e+01
3.712500387995808282e+00,2.490192465375048414e+01
3.717500388710348158e+00,2.479767141092293059e+01
3.722500389424888034e+00,2.450670175333414136e+01
3.727500390139427910e+00,2.426736795021139415e+01
3.732500390853967343e+00,2.392751933425557809e+01
3.737500391568507219e+00,2.342320103215718063e+01
3.742500392283047095e+00,2.303561197245198855e+01
3.747500392997586527e+00,2.280309219025554057e+01
3.752500393712126403e+00,2.242209328629076026e+01
3.757500394426666279e+00,2.204457222576161257e+01
3.762500395141205711e+00,2.154221252980210011e+01
3.767500395855746476e+00,2.102433809387952124e+01
3.772500396570285464e+00,2.063317075619892194e+01
3.777500397284825340e+00,2.031504001453919273e+01
3.782500397999365660e+00,2.013920016497098686e+01
3.787500398713904648e+00,2.003482981361628390e+01
3.792500399428444524e+00,1.968708900559573749e+01
3.797500400142984844e+00,1.919803841452483084e+01
3.802500400857523832e+00,1.870263665700804268e+01
3.807500401572063708e+00,1.847210332978738734e+01
3.812500402286604029e+00,1.826944879494152474e+01
3.817500403001143017e+00,1.801603912133134600e+01
3.822500403715683781e+00,1.749676576237357040e+01
3.827500404430223213e+00,1.687094033147252503e+01
3.832500405144762201e+00,1.636080168213629804e+01
3.837500405859302965e+00,1.603700785137539242e+01
3.842500406573842398e+00,1.589047443864842535e+01
3.847500407288382274e+00,1.574771884418061063e+01
3.852500408002922150e+00,1.554814298384695803e+01
3.857500408717461138e+00,1.530185799624035781e+01
3.862500409432001458e+00,1.499956583450642711e+01
3.867500410146541334e+00,1.502445501833335584e+01
3.872500410861080322e+00,1.498255341719209355e+01
3.877500411575620642e+00,1.467385862146841191e+01
3.882500412290160519e+00,1.420909819640280602e+01
3.887500413004699507e+00,1.368725043408142028e+01
3.892500413719240715e+00,1.330250846479958682e+01
3.897500414433779703e+00,1.314878465162843213e+01
3.902500415148318691e+00,1.297972035607597263e+01
3.907500415862859899e+00,1.265546328187122072e+01
3.912500416577398887e+00,1.222399682070130211e+01
3.917500417291938763e+00,1.196026358740459727e+01
3.922500418006479084e+00,1.197969081062808527e+01
3.927500418721018072e+00,1.212808291098639302e+01
3.932500419435557948e+00,1.212215494836129892e+01
3.937500420150097824e+00,1.204037734849828212e+01
3.942500420864637256e+00,1.189948347139880980e+01
3.947500421579177132e+00,1.156306946486694187e+01
3.952500422293717008e+00,1.117802614931144944e+01
3.957500423008256440e+00,1.101481001386849812e+01
3.962500423722797205e+00,1.091281675159166298e+01
3.967500424437336193e+00,1.057054239229660197e+01
3.972500425151876513e+00,1.031313091001328530e+01
3.977500425866416389e+00,1.033056392028453274e+01
3.982500426580955377e+00,1.041105911769653858e+01
3.987500427295495697e+00,1.049816866458121467e+01
3.992500428010035574e+00,1.039533851722035251e+01
3.997500428724574562e+00,1.016404075009330654e+01
4.002500429439114882e+00,1.005544469848541667e+01
4.007500430153654314e+00,1.015983102102006796e+01
4.012500430868193746e+00,1.044840078171716868e+01
4.017500431582734066e+00,1.045393951252458464e+01
4.022500432297273498e+00,1.034097712545622016e+01
4.027500433011812930e+00,1.020452448488657637e+01
4.032500433726354139e+00,9.907933515002071090e+00
4.037500434440892683e+00,9.825420393188835533e+00
4.042500435155433003e+00,9.853296018811818158e+00
4.047500435869973323e+00,1.025353290777331949e+01
4.052500436584511867e+00,1.077473687222953913e+01
4.057500437299052187e+00,1.135707255772706503e+01
4.062500438013592508e+00,1.179785182213805683e+01
4.067500438728131051e+00,1.215491508334230275e+01
4.072500439442671372e+00,1.240178268644319814e+01
4.077500440157211692e+00,1.280842272606031429e+01
4.082500440871750236e+00,1.350491071432406898e+01
4.087500441586291444e+00,1.448539686606079613e+01
4.092500442300830876e+00,1.571983095233196082e+01
4.097500443015369420e+00,1.740902821843184256e+01
4.102500443729910629e+00,1.944621723547487591e+01
4.107500444444450061e+00,2.206639292776480943e+01
4.112500445158989493e+00,2.580749821344670636e+01
4.117500445873529813e+00,3.101158367250076253e+01
4.122500446588069245e+00,3.834220256629799906e+01
4.127500447302608677e+00,4.792637861106481978e+01
4.132500448017148997e+00,6.084145290173410103e+01
4.137500448731688429e+00,7.874203703697133960e+01
4.142500449446227861e+00,1.020108920254485838e+02
4.147500450160768182e+00,1.292078113425098991e+02
4.152500450875307614e+00,1.552935894360547877e+02
4.157500451589847934e+00,1.711065842265624042e+02
4.162500452304387366e+00,1.718560032399282704e+02
4.167500453018926798e+00,1.635276653262375817e+02
4.172500453733467118e+00,1.414346293218973187e+02
4.177500454448006550e+00,1.121159367254437029e+02
4.182500455162545983e+00,8.379559607256180698e+01
4.187500455877086303e+00,6.148350456697062327e+01
4.192500456591625735e+00,4.581605476989864201e+01
4.197500457306165167e+00,3.495655574268374721e+01
4.202500458020705487e+00,2.686802967765538597e+01
4.207500458735244919e+00,2.107340476925236317e+01
4.212500459449784351e+00,1.675936653240245278e+01
4.217500460164324672e+00,1.382970252910786257e+01
4.222500460878864104e+00,1.186599572784217571e+01
4.227500461593404424e+00,1.029116820474393990e+01
4.232500462307943856e+00,9.044926700279006582e+00
4.237500463022484176e+00,7.714042160277585936e+00
4.242500463737023608e+00,6.552399784783631276e+00
4.247500464451563040e+00,5.898510014404223512e+00
4.252500465166103361e+00,5.658510239315546642e+00
4.257500465880642793e+00,5.457013187953407396e+00
4.262500466595182225e+00,4.926566155553587123e+00
4.267500467309722545e+00,4.084482058855485320e+00
4.272500468024261977e+00,3.465438313079118871e+00
4.277500468738801409e+00,2.934404078037232466e+00
4.282500469453341729e+00,2.533777709328887795e+00
4.287500470167881161e+00,2.259479287653675783e+00
4.292500470882420593e+00,1.886786800475874770e+00
4.297500471596961802e+00,1.729308310010253535e+00
4.302500472311500346e+00,1.713017597772932277e+00
4.307500473026040666e+00,1.744967543509403640e+00
4.312500473740580986e+00,1.681429773648801529e+00
4.317500474455119530e+00,1.395918342964932890e+00
4.322500475169659850e+00,1.253280310767308947e+00
4.327500475884200171e+00,1.257004090529619589e+00
4.332500476598738715e+00,1.407770475297468238e+00
4.337500477313279035e+00,1.789817383802812856e+00
4.342500478027819355e+00,1.974504313606701089e+00
4.347500478742357899e+00,1.760333093071608346e+00
4.352500479456899107e+00,1.245823857939683421e+00
4.357500480171438539e+00,7.410140747921900584e-01
4.362500480885977083e+00,5.543542930175817673e-01
4.367500481600518292e+00,4.474810940483848754e-01
4.372500482315056836e+00,5.237363784920603393e-01
4.377500483029597156e+00,4.223507157521453337e-01
4.382500483744137476e+00,3.718185881909903401e-01
4.387500484458676020e+00,3.818844751302208351e-01
4.392500485173216340e+00,3.039981751335290028e-01
4.397500485887756660e+00,6.448218861008854219e-01
4.402500486602295204e+00,7.126840627099682024e-01
4.407500487316835525e+00,5.545911351807717438e-01
4.412500488031375845e+00,2.986042182780579424e-01
4.417500488745914389e+00,0.000000000000000000e+00
4.422500489460455597e+00,1.075793353443259548e-01
4.427500490174995029e+00,2.832778420280988030e-01
4.432500490889533573e+00,5.102286446438029088e-01
4.437500491604074782e+00,6.616100309284433933e-01
4.442500492318614214e+00,6.257064869326427470e-01
4.447500493033153646e+00,5.839543513349099157e-01
4.452500493747693966e+00,8.059247256152275440e-01
4.457500494462233398e+00,1.167817126411819117e+00
4.462500495176772830e+00,1.538323743351440953e+00
4.467500495891313150e+00,2.054508345315582574e+00
4.472500496605852582e+00,2.714305059749960947e+00
4.477500497320392014e+00,3.604240540651574065e+00
4.482500498034932335e+00,4.833912728348764176e+00
4.487500498749471767e+00,6.663432255765314949e+00
4.492500499464012087e+00,8.935673425000004499e+00
4.497500500178551519e+00,1.159907083819882700e+01
4.502500500893091839e+00,1.404062721007261416e+01
4.507500501607631271e+00,1.607892484251794940e+01
4.512500502322170703e+00,1.749711512658836909e+01
4.517500503036711024e+00,1.789994368899016308e+01
4.522500503751250456e+00,1.728888466944368929e+01
4.527500504465789888e+00,1.614639975389854953e+01
4.532500505180330208e+00,1.409615545970495987e+01
4.537500505894869640e+00,1.156205023523767750e+01
4.542500506609409072e+00,8.959162946238734548e+00
4.547500507323949392e+00,6.925198188329375171e+00
4.552500508038488825e+00,5.480947712808188044e+00
4.557500508753028257e+00,4.289872946193838743e+00
4.562500509467568577e+00,3.199090097661269283e+00
4.567500510182108009e+00,2.048085979369261622e+00
4.572500510896648329e+00,1.139848377566067938e+00
4.577500511611187761e+00,5.708831424472009530e-01
4.582500512325727193e+00,3.419929967632242551e-01
4.587500513040267514e+00,2.131359342693599501e-01
4.592500513754806946e+00,3.153331787247566353e-01
4.597500514469346378e+00,6.569863225756193970e-01
4.602500515183886698e+00,1.243933479313909629e+00
4.607500515898426130e+00,2.168041812785418188e+00
4.612500516612965562e+00,3.064177752048010461e+00
4.617500517327505882e+00,3.904365926929756370e+00
4.622500518042045314e+00,4.667222761792800156e+00
4.627500518756584746e+00,5.309910821249559376e+00
4.632500519471125955e+00,5.889995499627275422e+00
4.637500520185664499e+00,6.236312940901541424e+00
4.642500520900204819e+00,6.325099189102161290e+00
4.647500521614745139e+00,6.239951125823608891e+00
4.652500522329283683e+00,6.003522026877192275e+00
4.657500523043824003e+00,5.574836015430662428e+00
4.662500523758364324e+00,5.075453833501796908e+00
4.667500524472902868e+00,4.503950381034485417e+00
4.672500525187443188e+00,4.159742840911803796e+00
4.677500525901983508e+00,3.842858745372097928e+00
4.682500526616522052e+00,3.588494081489272958e+00
4.687500527331063260e+00,3.546560410327174395e+00
4.692500528045602692e+00,3.876277152106524682e+00
4.697500528760141236e+00,4.162980668246518690e+00
4.702500529474682445e+00,4.336886468409261397e+00
4.707500530189221877e+00,4.073022071838977354e+00
4.712500530903761309e+00,4.022733355029117774e+00
4.717500531618301629e+00,4.083917706029694727e+00
4.722500532332841061e+00,4.156547706101719086e+00
4.727500533047380493e+00,4.710267565272147294e+00
4.732500533761920813e+00,5.351012995393602978e+00
4.737500534476460246e+00,5.671963358593188786e+00
4.742500535190999678e+00,5.932954509078399497e+00
4.747500535905539998e+00,6.570549593930877563e+00
4.752500536620079430e+00,7.393961904679201780e+00
4.757500537334618862e+00,8.123201849966562804e+00
4.762500538049159182e+00,8.689064748527584925e+00
4.767500538763698614e+00,9.127784149514866385e+00
4.772500539478238046e+00,9.753334078600630619e+00
4.777500540192778367e+00,1.024858504384792468e+01
4.782500540907317799e+00,1.067528328376761237e+01
4.787500541621858119e+00,1.143080735912445789e+01
4.792500542336397551e+00,1.217132489123105188e+01
4.797500543050936983e+00,1.281212825531423505e+01
4.802500543765477303e+00,1.315681548873163820e+01
4.807500544480016735e+00,1.375877100386867369e+01
4.812500545194556167e+00,1.438259136940285998e+01
4.817500545909096488e+00,1.503313804468473336e+01
4.822500546623636808e+00,1.584723049498387581e+01
4.827500547338175352e+00,1.650596918954590819e+01
4.832500548052715672e+00,1.739733325785272200e+01
4.837500548767255992e+00,1.857492072400503957e+01
4.842500549481794536e+00,1.944599782313918013e+01
4.847500550196334856e+00,2.034284909909513317e+01
4.852500550910875177e+00,2.127598175012519732e+01
4.857500551625414609e+00,2.244019862695392931e+01
4.862500552339954041e+00,2.333483749059695356e+01
4.867500553054494361e+00,2.411057277018630884e+01
4.872500553769033793e+00,2.512178372703789364e+01
4.877500554483574113e+00,2.655131031404079067e+01
4.882500555198113545e+00,2.776195464050465489e+01
4.887500555912652977e+00,2.874115260303284458e+01
4.892500556627193298e+00,3.001143531131026521e+01
4.897500557341732730e+00,3.137383729123678222e+01
4.902500558056272162e+00,3.280035253962728348e+01
4.907500558770812482e+00,3.424072773710651063e+01
4.912500559485352802e+00,3.572335336140275786e+01
4.917500560199891346e+00,3.715754029868185171e+01
4.922500560914431667e+00,3.864220514629323588e+01
4.927500561628971987e+00,4.037086899207304214e+01
4.932500562343510531e+00,4.229538422099500394e+01
4.937500563058050851e+00,4.414241400736494825e+01
4.942500563772590283e+00,4.600080414100318649e+01
4.947500564487130603e+00,4.782051491201605131e+01
4.952500565201670035e+00,4.975811061276061764e+01
4.957500565916209467e+00,5.173874073902186410e+01
4.962500566630749788e+00,5.356737656228773403e+01
4.967500567345289220e+00,5.569767099304027624e+01
4.972500568059828652e+00,5.779824276044780618e+01
4.977500568774368972e+00,6.039861147097133198e+01
4.982500569488909292e+00,6.340302207125870382e+01
4.987500570203447836e+00,6.619789724073393700e+01
4.992500570917988156e+00,6.912543968652636295e+01
4.997500571632528477e+00,7.217448907707142780e+01
5.002500572347067020e+00,7.577178180774404836e+01
5.007500573061607341e+00,7.995053010243117342e+01
5.012500573776147661e+00,8.475862513853496694e+01
5.017500574490687093e+00,9.022512874620349521e+01
5.022500575205226525e+00,9.675831417982089988e+01
5.027500575919766845e+00,1.047519588426255837e+02
5.032500576634306277e+00,1.152578601558563491e+02
5.037500577348845709e+00,1.282940020626688238e+02
5.042500578063386030e+00,1.447209283191581335e+02
5.047500578777925462e+00,1.647661260392852682e+02
5.052500579492465782e+00,1.870148399038733942e+02
5.057500580207005214e+00,2.105080641039719467e+02
5.062500580921544646e+00,2.347487679268010652e+02
5.067500581636084966e+00,2.585381689491209727e+02
5.072500582350624398e+00,2.808378241016889660e+02
5.077500583065163831e+00,2.994577400208328868e+02
5.082500583779704151e+00,3.123014292007977701e+02
5.087500584494244471e+00,3.147098430992256795e+02
5.092500585208783015e+00,3.046942822934103674e+02
5.097500585923323335e+00,2.829368237263992114e+02
5.102500586637863655e+00,2.543525155312185007e+02
5.107500587352402199e+00,2.246139741988504284e+02
5.112500588066942520e+00,1.948324758868309345e+02
5.117500588781482840e+00,1.681108738997276077e+02
5.122500589496022272e+00,1.466468091383663932e+02
5.127500590210561704e+00,1.302555982834284123e+02
5.132500590925102024e+00,1.172091925356946263e+02
5.137500591639641456e+00,1.068959981726912929e+02
5.142500592354181776e+00,9.898454232018212906e+01
5.147500593068720320e+00,9.212116582326859771e+01
5.152500593783260641e+00,8.587939458428485295e+01
5.157500594497800961e+00,8.082784117413643798e+01
5.162500595212339505e+00,7.688631445144488907e+01
5.167500595926879825e+00,7.346916062700785233e+01
5.172500596641420145e+00,7.024005452357022250e+01
5.177500597355959577e+00,6.712014776919261294e+01
5.182500598070499009e+00,6.467728998866112988e+01
5.187500598785039330e+00,6.247988012185567186e+01
5.192500599499578762e+00,5.991595822062828347e+01
5.197500600214118194e+00,5.723022327107719320e+01
5.202500600928658514e+00,5.471659911152232780e+01
5.207500601643197946e+00,5.268774737196201841e+01
5.212500602357738266e+00,5.083413729830192551e+01
5.217500603072277698e+00,4.918733310587111873e+01
5.222500603786817130e+00,4.759786873529446893e+01
5.227500604501357451e+00,4.569722295014867086e+01
5.232500605215896883e+00,4.394713574322287286e+01
5.237500605930436315e+00,4.255562396152072324e+01
5.242500606644976635e+00,4.120653452892724999e+01
5.247500607359516955e+00,3.999808204386664556e+01
5.252500608074055499e+00,3.899091396485653149e+01
5.257500608788595819e+00,3.794309596207881441e+01
5.262500609503136140e+00,3.630498496425741450e+01
5.267500610217674684e+00,3.464034121921071119e+01
5.272500610932215004e+00,3.308430558878114880e+01
5.277500611646755324e+00,3.183607533009137569e+01
5.282500612361294756e+00,3.072439481820305218e+01
5.287500613075834188e+00,2.965634705003287763e+01
5.292500613790374508e+00,2.846226331232259099e+01
5.297500614504913941e+00,2.749539359180528209e+01
5.302500615219453373e+00,2.628675276661351745e+01
5.307500615933993693e+00,2.510157812581815051e+01
5.312500616648533125e+00,2.397244094169923301e+01
5.317500617363073445e+00,2.292202479006334670e+01
5.322500618077612877e+00,2.214140924165553770e+01
5.327500618792152309e+00,2.144353055552511478e+01
5.332500619506692630e+00,2.072085379816974182e+01
5.337500620221232062e+00,2.011224296073027062e+01
5.342500620935771494e+00,1.983041457227602677e+01
5.347500621650311814e+00,1.960178755332549372e+01
5.352500622364851246e+00,1.970261602835358872e+01
5.357500623079390678e+00,1.996274298790376633e+01
5.362500623793930998e+00,2.044647797414143042e+01
5.367500624508470430e+00,2.088970035234410716e+01
5.372500625223009862e+00,2.143881194762298037e+01
5.377500625937550183e+00,2.157792210352550910e+01
5.382500626652089615e+00,2.156344851211383684e+01
5.387500627366629935e+00,2.166136086631945545e+01
5.392500628081169367e+00,2.200515205134786356e+01
5.397500628795708799e+00,2.250083692398595758e+01
5.402500629510249119e+00,2.247807535948027180e+01
5.407500630224788551e+00,2.155287366755482026e+01
5.412500630939327984e+00,1.994435705335831699e+01
5.417500631653868304e+00,1.779868319168554081e+01
5.422500632368408624e+00,1.559684862346432510e+01
5.427500633082947168e+00,1.355968753506044777e+01
5.432500633797487488e+00,1.167195012742354265e+01
5.437500634512027808e+00,1.020177283093175902e+01
5.442500635226567240e+00,9.094355063212901769e+00
5.447500635941106673e+00,8.201298828756534931e+00
5.452500636655646993e+00,7.456908767748359423e+00
5.457500637370186425e+00,6.951464861149929675e+00
5.462500638084725857e+00,6.773324481489055415e+00
5.467500638799266177e+00,6.943340117469574579e+00
5.472500639513805609e+00,6.683291991166356638e+00
5.477500640228345929e+00,6.211145626388201890e+00
5.482500640942885362e+00,5.552666838915342851e+00
5.487500641657424794e+00,5.107522810726777607e+00
5.492500642371965114e+00,4.835927597812485601e+00
5.497500643086504546e+00,4.612554483696726493e+00
