1.502500072169232093e+00,8.525261846713704017e+00
1.507500072883772191e+00,9.176167594535002081e+00
1.512500073598311845e+00,1.004949643259845971e+01
1.517500074312851721e+00,1.142524221703712328e+01
1.522500075027391375e+00,1.313723118939077494e+01
1.527500075741931251e+00,1.486355777780823928e+01
1.532500076456470905e+00,1.664700086680079494e+01
1.537500077171010782e+00,1.790799377773669221e+01
1.542500077885550436e+00,1.855943140735064389e+01
1.547500078600090090e+00,1.876460480747107340e+01
1.552500079314630188e+00,1.879810207316108972e+01
1.557500080029169620e+00,1.906408838106955272e+01
1.562500080743709496e+00,1.938738265847217690e+01
1.567500081458249372e+00,1.944195490643426183e+01
1.572500082172789027e+00,1.931330413804579393e+01
1.577500082887328903e+00,1.933332777156925886e+01
1.582500083601868335e+00,1.947640928514920233e+01
1.587500084316408433e+00,1.976926929910024455e+01
1.592500085030948087e+00,1.967390015413570836e+01
1.597500085745487741e+00,1.933622314569902301e+01
1.602500086460027617e+00,1.916729580697716528e+01
1.607500087174567494e+00,1.847511733630341269e+01
1.612500087889107148e+00,1.761221161231100041e+01
1.617500088603646802e+00,1.679215552145143420e+01
1.622500089318186678e+00,1.661747203147194796e+01
1.627500090032726332e+00,1.643241340148318841e+01
1.632500090747266430e+00,1.600682959697593333e+01
1.637500091461805862e+00,1.567264290588548192e+01
1.642500092176345738e+00,1.537832182211241161e+01
1.647500092890885615e+00,1.481528486056339489e+01
1.652500093605425047e+00,1.404702043652832799e+01
1.657500094319965145e+00,1.346321895197507956e+01
1.662500095034504799e+00,1.289912704969987089e+01
1.667500095749044675e+00,1.225999830291476655e+01
1.672500096463584329e+00,1.150742134613454937e+01
1.677500097178123983e+00,1.076430034970729821e+01
1.682500097892663860e+00,1.025537626572742056e+01
1.687500098607203736e+00,9.663550075799946626e+00
1.692500099321743390e+00,9.168884261362450161e+00
1.697500100036283044e+00,8.574274195785790198e+00
1.702500100750823142e+00,7.979886626222935320e+00
1.707500101465362574e+00,7.559191172943144466e+00
1.712500102179902450e+00,7.298736945763096173e+00
1.717500102894442326e+00,7.317427451404512340e+00
1.722500103608981981e+00,7.603642180451004151e+00
1.727500104323521857e+00,7.752022500861869503e+00
1.732500105038061289e+00,7.761964094367897360e+00
1.737500105752601387e+00,7.892597429898501105e+00
1.742500106467141041e+00,8.716651293564439129e+00
1.747500107181680695e+00,9.926666172080729211e+00
1.752500107896220571e+00,1.215655797790822135e+01
1.757500108610760448e+00,1.534663880556792037e+01
1.762500109325300102e+00,1.981936156483669720e+01
1.767500110039839756e+00,2.741637442832046645e+01
1.772500110754379632e+00,4.090589998599079991e+01
1.777500111468919286e+00,6.292313441917877981e+01
1.782500112183459384e+00,9.286483978973882358e+01
1.787500112897998816e+00,1.243963020517978180e+02
1.792500113612538692e+00,1.435358952646123498e+02
1.797500114327078569e+00,1.380255344772367039e+02
1.802500115041618223e+00,1.104785333982810585e+02
1.807500115756158099e+00,7.527566152850192793e+01
1.812500116470697753e+00,4.851186047301558801e+01
1.817500117185237629e+00,3.236864995072028250e+01
1.822500117899777283e+00,2.267717711420374371e+01
1.827500118614316937e+00,1.667218383834676843e+01
1.832500119328856814e+00,1.301687854988216486e+01
1.837500120043396690e+00,1.098341718776117659e+01
1.842500120757936344e+00,9.917014534556699346e+00
1.847500121472475998e+00,9.234418340783577150e+00
1.852500122187016096e+00,8.367573878854443592e+00
1.857500122901555528e+00,7.258008711825539194e+00
1.862500123616095404e+00,6.749014092955349042e+00
1.867500124330635058e+00,6.786481150366739712e+00
1.872500125045175157e+00,6.916703624397257499e+00
1.877500125759714811e+00,7.289338075604405276e+00
1.882500126474254243e+00,7.834375323191295593e+00
1.887500127188794341e+00,8.825189764250296776e+00
1.892500127903333995e+00,9.989959054283701789e+00
1.897500128617873427e+00,1.068024321151460754e+01
1.902500129332413525e+00,1.105180126997822754e+01
1.907500130046953402e+00,1.141755759077562971e+01
1.912500130761493056e+00,1.208439385687933054e+01
1.917500131476032710e+00,1.333670010110091653e+01
1.922500132190572586e+00,1.469620136878467065e+01
1.927500132905112240e+00,1.575102876522612405e+01
1.932500133619652338e+00,1.642845505383371574e+01
1.937500134334191770e+00,1.712569299839333326e+01
1.942500135048731869e+00,1.787032627365505277e+01
1.947500135763271523e+00,1.885455019033474855e+01
1.952500136477810955e+00,2.022072467594108502e+01
1.957500137192351053e+00,2.132574805634658333e+01
1.962500137906890707e+00,2.246099724357520699e+01
1.967500138621430139e+00,2.383441391964873901e+01
1.972500139335970237e+00,2.472187172625973517e+01
1.977500140050510113e+00,2.502671606183201902e+01
1.982500140765049768e+00,2.516388883948781086e+01
1.987500141479589422e+00,2.557073171177927406e+01
1.992500142194129298e+00,2.631709349460800240e+01
1.997500142908669396e+00,2.699665707353409516e+01
2.002500143623208384e+00,2.780939790185368565e+01
2.007500144337748704e+00,2.822247267442924112e+01
2.012500145052288580e+00,2.828686972023587032e+01
2.017500145766828012e+00,2.800822809605597286e+01
2.022500146481367889e+00,2.737299115280075057e+01
2.027500147195907765e+00,2.692314408617642130e+01
2.032500147910447641e+00,2.674351862599854712e+01
2.037500148624987073e+00,2.701910504969680460e+01
2.042500149339526949e+00,2.795619476220008437e+01
2.047500150054066825e+00,2.900744743634146516e+01
2.052500150768606257e+00,3.018484877824067780e+01
2.057500151483146134e+00,3.215962507976854567e+01
2.062500152197686010e+00,3.551663775145556201e+01
2.067500152912225886e+00,4.102156472061329850e+01
2.072500153626765762e+00,4.606609086263256359e+01
2.077500154341305194e+00,4.691436796350882332e+01
2.082500155055845070e+00,4.309745441867522686e+01
2.087500155770384946e+00,3.598884624040323388e+01
2.092500156484924378e+00,2.967096265502721053e+01
2.097500157199464255e+00,2.558742881928782253e+01
2.102500157914004575e+00,2.308482386868485037e+01
2.107500158628544007e+00,2.140850001072897157e+01
2.112500159343083439e+00,2.010996167677143376e+01
2.117500160057623759e+00,1.877657133396485278e+01
2.122500160772163191e+00,1.756945231868945712e+01
2.127500161486702623e+00,1.657102301761864283e+01
2.132500162201242500e+00,1.588036430071491623e+01
2.137500162915782820e+00,1.527465751084861267e+01
2.142500163630322252e+00,1.494374257058666444e+01
2.147500164344861684e+00,1.445795245614777969e+01
2.152500165059402004e+00,1.384687906782738764e+01
2.157500165773941436e+00,1.362372625860388098e+01
2.162500166488480868e+00,1.315750221819922672e+01
2.167500167203021189e+00,1.255699164227746678e+01
2.172500167917561065e+00,1.223093639771940389e+01
2.177500168632100497e+00,1.206280969374046208e+01
2.182500169346640373e+00,1.172673405182155193e+01
2.187500170061180249e+00,1.119700279124543840e+01
2.192500170775719681e+00,1.027835346774594427e+01
2.197500171490259557e+00,9.232554788701634152e+00
2.202500172204799433e+00,8.666223997064093965e+00
2.207500172919339310e+00,8.728153532616715893e+00
2.212500173633879186e+00,9.098599363138021090e+00
2.217500174348418618e+00,9.248741434692476560e+00
2.222500175062958494e+00,9.170511553547100903e+00
2.227500175777497926e+00,9.380896365729938680e+00
2.232500176492037802e+00,9.826936137355346546e+00
2.237500177206577678e+00,1.001551601540552383e+01
2.242500177921117555e+00,9.839141175215729618e+00
2.247500178635657431e+00,9.359719780447278481e+00
2.252500179350196863e+00,8.822112788748938783e+00
2.257500180064736739e+00,8.418446696861963119e+00
2.262500180779277059e+00,8.195340104066872300e+00
2.267500181493816047e+00,7.765970363511257801e+00
2.272500182208355923e+00,7.394942967901386055e+00
2.277500182922896244e+00,7.486664353147205020e+00
2.282500183637435676e+00,7.536818950043709719e+00
2.287500184351975108e+00,7.645705366800768843e+00
2.292500185066515428e+00,7.349413147732548168e+00
2.297500185781055304e+00,6.918956074902609998e+00
2.302500186495594292e+00,6.906292676791792928e+00
2.307500187210134612e+00,7.092324276015858686e+00
2.312500187924674488e+00,7.089586640547622665e+00
2.317500188639213921e+00,7.127253646648057384e+00
2.322500189353753797e+00,7.250813793348811487e+00
2.327500190068293673e+00,7.272936902470405585e+00
2.332500190782833549e+00,7.188513181912981054e+00
2.337500191497372981e+00,7.012726956904430153e+00
2.342500192211912857e+00,6.745656280144828543e+00
2.347500192926452733e+00,6.736408674754727599e+00
2.352500193640992165e+00,6.602066447523839088e+00
2.357500194355532042e+00,6.450526045122671803e+00
2.362500195070071918e+00,6.244420173971832355e+00
2.367500195784611794e+00,6.152924441591267168e+00
2.372500196499151670e+00,6.393859408093192087e+00
2.377500197213691102e+00,6.742174473605246021e+00
2.382500197928230978e+00,6.842447878964605934e+00
2.387500198642770854e+00,6.897851550155735367e+00
2.392500199357310287e+00,7.141403540392957439e+00
2.397500200071850163e+00,7.507751478056036376e+00
2.402500200786390039e+00,7.752496297819391202e+00
2.407500201500929915e+00,7.431287700289601617e+00
2.412500202215469347e+00,7.125135431945807341e+00
2.417500202930009223e+00,6.949656111949309434e+00
2.422500203644549099e+00,6.883747549177428482e+00
2.427500204359088531e+00,7.150478635422530260e+00
2.432500205073628408e+00,7.428942373350139405e+00
2.437500205788168728e+00,7.641365252102843897e+00
2.442500206502708160e+00,7.837689767430902066e+00
2.447500207217247592e+00,7.931475301189209404e+00
2.452500207931787912e+00,7.889046071139375726e+00
2.457500208646327344e+00,7.844054119807708503e+00
2.462500209360866776e+00,8.073187322867056537e+00
2.467500210075407097e+00,8.299025835012116659e+00
2.472500210789946973e+00,8.373666358092691553e+00
2.477500211504486405e+00,8.325780247132740897e+00
2.482500212219026281e+00,8.214617417120791742e+00
2.487500212933566157e+00,8.272645503704268322e+00
2.492500213648105589e+00,8.312135557076260284e+00
2.497500214362645465e+00,8.295718683124960080e+00
2.502500215077185342e+00,7.837637264652869362e+00
2.507500215791725218e+00,7.465128018527991571e+00
2.512500216506264650e+00,7.279158080172805967e+00
2.517500217220804526e+00,7.159136918125625471e+00
2.522500217935344402e+00,7.534461744688542240e+00
2.527500218649883834e+00,7.722438658992871297e+00
2.532500219364423710e+00,7.702177911151977696e+00
2.537500220078963586e+00,8.065643707423930664e+00
2.542500220793503463e+00,8.227035314195688898e+00
2.547500221508043339e+00,8.106106150246660036e+00
2.552500222222582771e+00,7.920033904391573287e+00
2.557500222937122647e+00,7.733499881639943396e+00
2.562500223651662967e+00,7.887247353251154891e+00
2.567500224366201955e+00,8.123203627490738654e+00
2.572500225080741831e+00,8.293128731708350188e+00
2.577500225795282152e+00,8.173770442067450404e+00
2.582500226509821584e+00,8.063147242955949423e+00
2.587500227224361016e+00,8.180999987567076914e+00
2.592500227938901336e+00,8.352538236205134581e+00
2.597500228653441212e+00,8.434526682481362059e+00
2.602500229367980644e+00,8.537208981845935796e+00
2.607500230082520076e+00,8.276382947304682602e+00
2.612500230797060397e+00,8.080315833020051741e+00
2.617500231511599829e+00,8.218003612049301410e+00
2.622500232226139261e+00,8.173377519702796690e+00
2.627500232940679581e+00,7.998880714086396893e+00
2.632500233655219457e+00,8.026741469839237197e+00
2.637500234369758889e+00,8.081131381637874256e+00
2.642500235084298765e+00,8.201737141910712126e+00
2.647500235798838641e+00,8.235435345893620251e+00
2.652500236513378074e+00,7.967579113087538190e+00
2.657500237227917950e+00,7.893696085665226292e+00
2.662500237942457826e+00,7.893163965936594195e+00
2.667500238656997702e+00,8.067925116308572342e+00
2.672500239371537578e+00,8.219995104555721355e+00
2.677500240086077010e+00,8.454276424866748130e+00
2.682500240800616886e+00,8.609710841934997916e+00
2.687500241515156763e+00,8.521791598324455208e+00
2.692500242229696195e+00,8.252513365975801207e+00
2.697500242944236071e+00,8.189066094190081913e+00
2.702500243658775947e+00,8.181530322454477755e+00
2.707500244373315823e+00,8.259094221778639167e+00
2.712500245087855255e+00,8.488879278607555534e+00
2.717500245802395131e+00,8.889056750212546376e+00
2.722500246516935007e+00,9.364486092738331990e+00
2.727500247231474440e+00,9.628834102133566830e+00
2.732500247946014316e+00,9.529526086331770784e+00
2.737500248660554636e+00,9.344590347972314248e+00
2.742500249375094068e+00,9.146092022591005843e+00
2.747500250089633500e+00,9.144096701958062567e+00
2.752500250804173820e+00,9.477533471481251581e+00
2.757500251518713252e+00,1.022911800619488076e+01
2.762500252233252684e+00,1.103307962182782376e+01
2.767500252947793005e+00,1.165005141180216697e+01
2.772500253662332881e+00,1.182311883149714049e+01
2.777500254376872313e+00,1.176747423953975158e+01
2.782500255091412189e+00,1.215814883167246307e+01
2.787500255805952065e+00,1.309259809023984644e+01
2.792500256520491497e+00,1.409933825906591665e+01
2.797500257235031373e+00,1.510626909762453352e+01
2.802500257949571250e+00,1.604208379340906276e+01
2.807500258664111126e+00,1.690352970437874092e+01
2.812500259378650558e+00,1.786164004866736832e+01
2.817500260093190434e+00,1.909168995952319392e+01
2.822500260807730310e+00,2.069659736446635634e+01
2.827500261522270186e+00,2.283286903045689087e+01
2.832500262236809618e+00,2.539785642351620254e+01
2.837500262951349495e+00,2.851782333592069563e+01
2.842500263665889371e+00,3.231988802511568792e+01
2.847500264380429247e+00,3.699183766707454879e+01
2.852500265094968679e+00,4.210979559286505491e+01
2.857500265809508555e+00,4.773450424786329904e+01
2.862500266524048875e+00,5.406891796542237216e+01
2.867500267238588307e+00,6.052769149248985059e+01
2.872500267953127739e+00,6.818917583944249827e+01
2.877500268667668060e+00,7.800840045804358169e+01
2.882500269382207492e+00,9.222762622017830836e+01
2.887500270096746924e+00,1.127579372149471055e+02
2.892500270811286800e+00,1.424734912371632731e+02
2.897500271525826676e+00,1.873443933227218849e+02
2.902500272240366552e+00,2.559519240202960759e+02
2.907500272954905984e+00,3.615408465204527033e+02
2.912500273669446305e+00,5.116191381011718136e+02
2.917500274383985737e+00,6.992623114171130965e+02
2.922500275098525169e+00,9.069614064431802944e+02
2.927500275813065489e+00,1.083755619869250268e+03
2.932500276527604921e+00,1.160127873948030583e+03
2.937500277242144797e+00,1.075110163174942045e+03
2.942500277956684673e+00,8.878827974523767352e+02
2.947500278671224549e+00,6.494208254297341227e+02
2.952500279385763982e+00,4.367119910465796124e+02
2.957500280100304302e+00,3.012991529664294035e+02
2.962500280814843734e+00,2.189091603093564231e+02
2.967500281529383166e+00,1.661990379549123986e+02
2.972500282243923486e+00,1.319834035344957215e+02
2.977500282958462918e+00,1.090924081053633472e+02
2.982500283673002794e+00,9.203729401213678329e+01
2.987500284387542226e+00,7.939818175221495267e+01
2.992500285102082547e+00,7.027737808141796449e+01
2.997500285816621979e+00,6.341436624853696458e+01
3.002500286531161411e+00,5.872151156191256405e+01
3.007500287245701731e+00,5.631082530562127886e+01
3.012500287960241163e+00,5.559082753261242260e+01
3.017500288674781039e+00,5.584628949651727226e+01
3.022500289389320915e+00,5.555427369087556144e+01
3.027500290103860792e+00,5.352741387859833821e+01
3.032500290818400224e+00,5.003189604915957034e+01
3.037500291532940100e+00,4.517735099688297851e+01
3.042500292247479976e+00,4.020796149883580028e+01
3.047500292962019408e+00,3.600832168998539373e+01
3.052500293676559728e+00,3.301527178015294339e+01
3.057500294391099160e+00,3.080053965573057440e+01
3.062500295105639037e+00,2.932086295014556754e+01
3.067500295820178913e+00,2.817342117291980230e+01
3.072500296534718789e+00,2.743351271177192530e+01
3.077500297249258221e+00,2.706638954956326870e+01
3.082500297963798097e+00,2.656803485233461970e+01
3.087500298678337973e+00,2.631748840890645624e+01
3.092500299392877405e+00,2.625583222672520378e+01
3.097500300107417281e+00,2.617720615700648068e+01
3.102500300821957158e+00,2.597929617612686570e+01
3.107500301536497034e+00,2.586667300881055098e+01
3.112500302251036466e+00,2.591844959897110812e+01
3.117500302965576342e+00,2.621422715477143583e+01
3.122500303680116218e+00,2.646410003157160418e+01
3.127500304394655650e+00,2.674864596643885761e+01
3.132500305109195970e+00,2.720352690836062948e+01
3.137500305823735403e+00,2.766737720196789496e+01
3.142500306538275279e+00,2.817335021852733234e+01
3.147500307252815155e+00,2.901247284825905126e+01
3.152500307967354587e+00,2.981970507077534194e+01
3.157500308681894463e+00,3.043761793372658531e+01
3.162500309396434339e+00,3.094666699042414848e+01
3.167500310110974215e+00,3.151858585465532769e+01
3.172500310825513647e+00,3.255676706018084587e+01
3.177500311540053524e+00,3.405362290070132758e+01
3.182500312254593400e+00,3.559235544950939811e+01
3.187500312969132832e+00,3.712448341507996474e+01
3.192500313683672708e+00,3.870195884040691681e+01
3.197500314398212584e+00,4.046074864609033739e+01
3.202500315112752460e+00,4.206086758943729365e+01
3.207500315827291892e+00,4.383655526653137713e+01
3.212500316541832213e+00,4.541694261625355011e+01
3.217500317256371645e+00,4.673047696922378691e+01
3.222500317970911521e+00,4.792649187213157802e+01
3.227500318685451397e+00,4.848629107222421908e+01
3.232500319399990829e+00,4.829846590022810915e+01
3.237500320114530705e+00,4.774803711616243618e+01
3.242500320829070581e+00,4.673354475319689527e+01
3.247500321543610458e+00,4.518822731697895279e+01
3.252500322258149890e+00,4.321527569198900665e+01
3.257500322972690210e+00,4.132168934281838801e+01
3.262500323687229642e+00,3.969323969317986212e+01
3.267500324401769074e+00,3.842600699124676566e+01
3.272500325116308950e+00,3.729386688201930156e+01
3.277500325830848826e+00,3.619566447969293677e+01
3.282500326545388702e+00,3.526150709236833336e+01
3.287500327259928135e+00,3.446677789402707504e+01
3.292500327974468455e+00,3.363741546564375540e+01
3.297500328689007887e+00,3.292525559216210240e+01
3.302500329403547319e+00,3.240056055946411107e+01
3.307500330118087639e+00,3.228969005290656469e+01
3.312500330832627071e+00,3.217840926288295123e+01
3.317500331547166947e+00,3.195900192202844892e+01
3.322500332261706824e+00,3.174427177015661528e+01
3.327500332976246700e+00,3.155391340396300848e+01
3.332500333690786132e+00,3.157516291188102286e+01
3.337500334405326008e+00,3.159367555972056607e+01
3.342500335119865884e+00,3.174425821263412217e+01
3.347500335834405316e+00,3.212219746020480216e+01
3.352500336548945636e+00,3.252328036849053206e+01
3.357500337263485068e+00,3.268839286878039729e+01
3.362500337978024945e+00,3.299813035338814871e+01
3.367500338692564377e+00,3.348518781245542186e+01
3.372500339407104697e+00,3.417780465825728697e+01
3.377500340121644129e+00,3.529706086786353580e+01
3.382500340836183561e+00,3.675034622150639052e+01
3.387500341550723881e+00,3.838139082023991477e+01
3.392500342265263313e+00,4.008525532039806194e+01
3.397500342979803190e+00,4.225925866805221176e+01
3.402500343694343066e+00,4.531790119479541090e+01
3.407500344408882942e+00,4.978707238149337400e+01
3.412500345123422374e+00,5.610049861227224710e+01
3.417500345837962250e+00,6.357371168045608556e+01
3.422500346552502126e+00,7.119070039997274080e+01
3.427500347267041558e+00,7.877792183590156583e+01
3.432500347981581879e+00,8.698449539634668781e+01
3.437500348696121311e+00,9.551761543016885980e+01
3.442500349410661187e+00,1.013195531801871425e+02
3.447500350125201063e+00,1.009834893027843918e+02
3.452500350839740495e+00,9.474310737384195136e+01
3.457500351554280371e+00,8.417242299037440034e+01
3.462500352268820247e+00,7.162581672958839363e+01
3.467500352983360123e+00,6.144152535989064745e+01
3.472500353697899556e+00,5.453291991713427933e+01
3.477500354412439432e+00,4.991719222812537282e+01
3.482500355126979308e+00,4.695702361186607732e+01
3.487500355841518740e+00,4.497795548509304808e+01
3.492500356556058616e+00,4.344883980180105709e+01
3.497500357270598492e+00,4.235686957088728377e+01
3.502500357985138368e+00,4.170937939333254008e+01
3.507500358699677800e+00,4.124301294273431040e+01
3.512500359414218121e+00,4.093757794584359999e+01
3.517500360128757553e+00,4.083004154396036256e+01
3.522500360843297429e+00,4.061255275393642705e+01
3.527500361557837305e+00,4.037987899167649175e+01
3.532500362272376737e+00,4.041352472454997269e+01
3.537500362986916613e+00,4.052795339528034901e+01
3.542500363701456489e+00,4.045233180677593054e+01
3.547500364415996366e+00,4.051204867688016975e+01
3.552500365130535798e+00,4.054534061499674635e+01
3.557500365845075674e+00,4.075955432918266297e+01
3.562500366559615550e+00,4.132279091331946574e+01
3.567500367274154982e+00,4.215119832764315788e+01
3.572500367988694858e+00,4.303207930896041944e+01
3.577500368703234734e+00,4.334660865586454292e+01
3.582500369417774611e+00,4.314637131473415366e+01
3.587500370132314043e+00,4.281632624697743950e+01
3.592500370846854363e+00,4.248252127284274593e+01
3.597500371561393795e+00,4.234421587420894184e+01
3.602500372275933227e+00,4.209194149737942325e+01
3.607500372990473547e+00,4.162918124063702408e+01
3.612500373705012979e+00,4.073179368242779219e+01
3.617500374419552855e+00,3.978028216852408150e+01
3.622500375134092732e+00,3.908816395270753219e+01
3.627500375848632608e+00,3.827388792143256069e+01
3.632500376563172040e+00,3.774142541419246299e+01
3.637500377277712360e+00,3.747256758685739442e+01
3.642500377992251792e+00,3.693396886875757446e+01
3.647500378706791224e+00,3.634170384750262883e+01
3.652500379421331100e+00,3.571372698583206784e+01
3.657500380135870977e+00,3.519418292440167306e+01
3.662500380850410853e+00,3.475442576894522517e+01
3.667500381564950285e+00,3.447478788915310588e+01
3.672500382279490605e+00,3.423043196950703759e+01
3.677500382994030037e+00,3.383563811870413929e+01
3.682500383708569469e+00,3.332197159431740374e+01
3.687500384423109789e+00,3.250700838878208287e+01
3.692500385137649221e+00,3.157300954585372210e+01
3.697500385852189098e+00,3.089352028174971565e+01
3.702500386566728974e+00,3.035801598129040713e+01
3.707500387281268850e+00,2.973927280342007862e+01
3.712500387995808282e+00,2.927155371640657222e+01
3.717500388710348158e+00,2.885687680844046099e+01
3.722500389424888034e+00,2.841666934041194281e+01
3.727500390139427910e+00,2.826637101744660185e+01
3.732500390853967343e+00,2.807243472136980245e+01
3.737500391568507219e+00,2.768194687208398364e+01
3.742500392283047095e+00,2.719705980065930362e+01
3.747500392997586527e+00,2.661894316539581951e+01
3.752500393712126403e+00,2.626495924483572253e+01
3.757500394426666279e+00,2.607277060382597256e+01
3.762500395141205711e+00,2.588036939043507800e+01
3.767500395855746476e+00,2.537386175982703662e+01
3.772500396570285464e+00,2.461276694656919517e+01
3.777500397284825340e+00,2.390355242092726940e+01
3.782500397999365660e+00,2.335966196507746417e+01
3.787500398713904648e+00,2.308816118096382297e+01
3.792500399428444524e+00,2.310599725596460985e+01
3.797500400142984844e+00,2.302035784965300991e+01
3.802500400857523832e+00,2.277174360360402261e+01
3.807500401572063708e+00,2.236431482112419644e+01
3.812500402286604029e+00,2.189927769775897559e+01
3.817500403001143017e+00,2.127233305180567413e+01
3.822500403715683781e+00,2.072607500599008290e+01
3.827500404430223213e+00,2.037022414180756869e+01
3.832500405144762201e+00,2.007432769487195401e+01
3.837500405859302965e+00,1.976655716237797833e+01
3.842500406573842398e+00,1.952339946525012238e+01
3.847500407288382274e+00,1.930625973138324980e+01
3.852500408002922150e+00,1.910037731130751126e+01
3.857500408717461138e+00,1.889151034853733790e+01
3.862500409432001458e+00,1.839866283039219752e+01
3.867500410146541334e+00,1.773677379701672407e+01
3.872500410861080322e+00,1.712121563243493938e+01
3.877500411575620642e+00,1.672838976771259922e+01
3.882500412290160519e+00,1.628868322395993573e+01
3.887500413004699507e+00,1.615079966705889092e+01
3.892500413719240715e+00,1.597884192722813168e+01
3.897500414433779703e+00,1.574813109085687302e+01
3.902500415148318691e+00,1.562765278960267779e+01
3.907500415862859899e+00,1.556858869456675620e+01
3.912500416577398887e+00,1.539983653586165246e+01
3.917500417291938763e+00,1.520523788584705471e+01
3.922500418006479084e+00,1.499359158690020877e+01
3.927500418721018072e+00,1.473515277488814945e+01
3.932500419435557948e+00,1.451858478349561210e+01
3.937500420150097824e+00,1.450680020871539000e+01
3.942500420864637256e+00,1.443226120184857564e+01
3.947500421579177132e+00,1.420315012383417752e+01
3.952500422293717008e+00,1.399290811950260149e+01
3.957500423008256440e+00,1.352545240276236882e+01
3.962500423722797205e+00,1.310996629569757488e+01
3.967500424437336193e+00,1.280728106453472037e+01
3.972500425151876513e+00,1.309085614428647659e+01
3.977500425866416389e+00,1.337549617979783534e+01
3.982500426580955377e+00,1.321513544960617992e+01
3.987500427295495697e+00,1.300861789526805978e+01
3.992500428010035574e+00,1.267236557842301181e+01
3.997500428724574562e+00,1.235345241129340366e+01
4.002500429439114882e+00,1.220829068015007124e+01
4.007500430153654314e+00,1.212638592815750371e+01
4.012500430868193746e+00,1.235909061751198124e+01
4.017500431582734066e+00,1.267316858259698620e+01
4.022500432297273498e+00,1.274651646555975049e+01
4.027500433011812930e+00,1.267564052298087063e+01
4.032500433726354139e+00,1.284504139152824109e+01
4.037500434440892683e+00,1.322042697861178340e+01
4.042500435155433003e+00,1.357966949366289100e+01
4.047500435869973323e+00,1.383031033097239515e+01
4.052500436584511867e+00,1.407871290175404511e+01
4.057500437299052187e+00,1.445232825916980346e+01
4.062500438013592508e+00,1.481420315499940443e+01
4.067500438728131051e+00,1.553183990294962769e+01
4.072500439442671372e+00,1.617458407399402631e+01
4.077500440157211692e+00,1.694349510186799534e+01
4.082500440871750236e+00,1.810786972059781874e+01
4.087500441586291444e+00,1.958361110515028258e+01
4.092500442300830876e+00,2.191821422302473366e+01
4.097500443015369420e+00,2.523726851982337394e+01
4.102500443729910629e+00,2.926771231381081861e+01
4.107500444444450061e+00,3.376788650687700510e+01
4.112500445158989493e+00,3.931110392050095470e+01
4.117500445873529813e+00,4.620120715710430659e+01
4.122500446588069245e+00,5.420410546531127238e+01
4.127500447302608677e+00,6.298313850950580672e+01
4.132500448017148997e+00,7.311503706321525442e+01
4.137500448731688429e+00,8.533830557749553236e+01
4.142500449446227861e+00,9.904666090165807191e+01
4.147500450160768182e+00,1.152159426836871035e+02
4.152500450875307614e+00,1.332673335851049501e+02
4.157500451589847934e+00,1.480741036657643690e+02
4.162500452304387366e+00,1.530212112139497549e+02
4.167500453018926798e+00,1.466495593381983440e+02
4.172500453733467118e+00,1.322366844438859630e+02
4.177500454448006550e+00,1.093910860672348235e+02
4.182500455162545983e+00,8.435609040072915832e+01
4.187500455877086303e+00,6.325383833024568503e+01
4.192500456591625735e+00,4.787266946828145819e+01
4.197500457306165167e+00,3.728009822819461760e+01
4.202500458020705487e+00,3.005099375586831911e+01
4.207500458735244919e+00,2.472772397270153988e+01
4.212500459449784351e+00,2.047033257758494074e+01
4.217500460164324672e+00,1.715242527739314937e+01
4.222500460878864104e+00,1.467791173036289365e+01
4.227500461593404424e+00,1.257170378830625168e+01
4.232500462307943856e+00,1.076001945170838781e+01
4.237500463022484176e+00,9.293649471311766774e+00
4.242500463737023608e+00,8.120082592279800338e+00
4.247500464451563040e+00,7.285867614763162692e+00
4.252500465166103361e+00,6.717253042359743631e+00
4.257500465880642793e+00,6.201632394634827961e+00
4.262500466595182225e+00,5.884065203237184960e+00
4.267500467309722545e+00,5.623417148636406182e+00
4.272500468024261977e+00,5.403401319911210976e+00
4.277500468738801409e+00,5.150357755784170877e+00
4.282500469453341729e+00,4.707984889955753260e+00
4.287500470167881161e+00,4.363279492528192804e+00
4.292500470882420593e+00,4.012857470811354688e+00
4.297500471596961802e+00,3.613515392775184409e+00
4.302500472311500346e+00,3.179270281994206471e+00
4.307500473026040666e+00,2.844561521963100859e+00
4.312500473740580986e+00,2.749352174476257460e+00
4.317500474455119530e+00,2.656133374178182294e+00
4.322500475169659850e+00,2.768253186002766597e+00
4.327500475884200171e+00,2.657376321992785506e+00
4.332500476598738715e+00,2.296382090534677900e+00
4.337500477313279035e+00,1.966285783096225259e+00
4.342500478027819355e+00,1.603193019950651887e+00
4.347500478742357899e+00,1.355642279489984503e+00
4.352500479456899107e+00,1.207071939259378723e+00
4.357500480171438539e+00,1.008290979101445828e+00
4.362500480885977083e+00,1.023743629610009975e+00
4.367500481600518292e+00,9.241546358234131731e-01
4.372500482315056836e+00,7.249142670027026725e-01
4.377500483029597156e+00,6.701115197812441693e-01
4.382500483744137476e+00,7.063195185671702347e-01
4.387500484458676020e+00,6.915798905631049820e-01
4.392500485173216340e+00,4.988878732074795153e-01
4.397500485887756660e+00,3.559445114534014465e-01
4.402500486602295204e+00,2.281827808359935261e-01
4.407500487316835525e+00,4.104729097549011385e-01
4.412500488031375845e+00,6.330183755817415658e-01
4.417500488745914389e+00,6.409152308541479215e-01
4.422500489460455597e+00,7.947380407866830865e-01
4.427500490174995029e+00,6.781448637618723296e-01
4.432500490889533573e+00,5.033032767331064861e-01
4.437500491604074782e+00,2.606706486798202604e-01
4.442500492318614214e+00,0.000000000000000000e+00
4.447500493033153646e+00,2.367120728378040440e-01
4.452500493747693966e+00,9.352327334423762295e-01
4.457500494462233398e+00,1.782338919452001846e+00
4.462500495176772830e+00,2.469171579360420310e+00
4.467500495891313150e+00,3.099988113941265055e+00
4.472500496605852582e+00,3.951165061807444090e+00
4.477500497320392014e+00,5.016150492009273876e+00
4.482500498034932335e+00,6.668275283342438797e+00
4.487500498749471767e+00,8.857896679053453681e+00
4.492500499464012087e+00,1.117544760325915831e+01
4.497500500178551519e+00,1.367507557698041865e+01
4.502500500893091839e+00,1.624521766932605260e+01
4.507500501607631271e+00,1.847557437446266704e+01
4.512500502322170703e+00,2.029745995342506149e+01
4.517500503036711024e+00,2.188632928960123536e+01
4.522500503751250456e+00,2.230438653132438276e+01
4.527500504465789888e+00,2.201645423251164857e+01
4.532500505180330208e+00,2.044444722963294225e+01
4.537500505894869640e+00,1.796215413586560317e+01
4.542500506609409072e+00,1.519992484110781561e+01
4.547500507323949392e+00,1.229909556082264999e+01
4.552500508038488825e+00,9.340516668081022544e+00
4.557500508753028257e+00,6.924234090061986535e+00
4.562500509467568577e+00,5.381647511191147260e+00
4.567500510182108009e+00,4.459836545028622368e+00
4.572500510896648329e+00,3.700131290923934557e+00
4.577500511611187761e+00,3.184907988327665862e+00
4.582500512325727193e+00,2.957510891802087372e+00
4.587500513040267514e+00,3.003606030803666727e+00
4.592500513754806946e+00,3.329367244849720464e+00
4.597500514469346378e+00,3.880482531190295958e+00
4.602500515183886698e+00,4.455484122943516923e+00
4.607500515898426130e+00,4.998228957862522748e+00
4.612500516612965562e+00,5.183958248657006607e+00
4.617500517327505882e+00,5.358689572852313177e+00
4.622500518042045314e+00,5.570802566161546565e+00
4.627500518756584746e+00,6.151605328747280055e+00
4.632500519471125955e+00,6.931978712344005089e+00
4.637500520185664499e+00,7.629064552692568668e+00
4.642500520900204819e+00,8.363721724241031552e+00
4.647500521614745139e+00,8.945011003436377450e+00
4.652500522329283683e+00,9.339097656630201527e+00
4.657500523043824003e+00,9.415680883447805627e+00
4.662500523758364324e+00,8.917140545316840416e+00
4.667500524472902868e+00,8.062388483840720710e+00
4.672500525187443188e+00,7.361931997369140390e+00
4.677500525901983508e+00,6.954482727732340663e+00
4.682500526616522052e+00,6.623924433689410307e+00
4.687500527331063260e+00,6.280758303438858547e+00
4.692500528045602692e+00,6.165227954632143792e+00
4.697500528760141236e+00,6.268187354306689940e+00
4.702500529474682445e+00,6.549454090379981608e+00
4.707500530189221877e+00,6.681705856039513947e+00
4.712500530903761309e+00,6.770542705611035217e+00
4.717500531618301629e+00,6.833765619022926785e+00
4.722500532332841061e+00,7.065323035022686327e+00
4.727500533047380493e+00,7.494002257434942749e+00
4.732500533761920813e+00,8.092773937599247347e+00
4.737500534476460246e+00,8.809401205234848931e+00
4.742500535190999678e+00,9.434115449706041545e+00
4.747500535905539998e+00,9.885657579795974925e+00
4.752500536620079430e+00,1.032068354129853560e+01
4.757500537334618862e+00,1.053488736390073655e+01
4.762500538049159182e+00,1.100615301666471169e+01
4.767500538763698614e+00,1.152272823616215192e+01
4.772500539478238046e+00,1.228597721203271931e+01
4.777500540192778367e+00,1.321808932722757390e+01
4.782500540907317799e+00,1.416914092559943583e+01
4.787500541621858119e+00,1.503077329042758947e+01
4.792500542336397551e+00,1.539039796669408133e+01
4.797500543050936983e+00,1.584769456382809949e+01
4.802500543765477303e+00,1.636534928110853571e+01
4.807500544480016735e+00,1.692673923384319323e+01
4.812500545194556167e+00,1.767637434791163287e+01
4.817500545909096488e+00,1.857944325821335951e+01
4.822500546623636808e+00,1.955404597469117789e+01
4.827500547338175352e+00,2.013928470265659598e+01
4.832500548052715672e+00,2.062853410646943075e+01
4.837500548767255992e+00,2.173753212985940308e+01
4.842500549481794536e+00,2.279761730062585912e+01
4.847500550196334856e+00,2.407018185564533042e+01
4.852500550910875177e+00,2.516659361588182264e+01
4.857500551625414609e+00,2.616190448249074052e+01
4.862500552339954041e+00,2.751312436260826644e+01
4.867500553054494361e+00,2.899922361076767174e+01
4.872500553769033793e+00,3.073404196445545722e+01
4.877500554483574113e+00,3.221349923748101673e+01
4.882500555198113545e+00,3.346723716568732243e+01
4.887500555912652977e+00,3.473025026633536072e+01
4.892500556627193298e+00,3.664158578928737597e+01
4.897500557341732730e+00,3.912709518185533852e+01
4.902500558056272162e+00,4.187202930365890552e+01
4.907500558770812482e+00,4.452846640514627552e+01
4.912500559485352802e+00,4.695814049674390844e+01
4.917500560199891346e+00,4.956749383910283768e+01
4.922500560914431667e+00,5.248672357396242205e+01
4.927500561628971987e+00,5.521333641166251027e+01
4.932500562343510531e+00,5.823620258622986512e+01
4.937500563058050851e+00,6.110235883389896117e+01
4.942500563772590283e+00,6.425633334429807064e+01
4.947500564487130603e+00,6.758787525264028773e+01
4.952500565201670035e+00,7.069931914168836329e+01
4.957500565916209467e+00,7.350464510035504873e+01
4.962500566630749788e+00,7.522807491511849776e+01
4.967500567345289220e+00,7.656126811495187212e+01
4.972500568059828652e+00,7.703566694203573206e+01
4.977500568774368972e+00,7.740033448653178993e+01
4.982500569488909292e+00,7.839823032135456060e+01
4.987500570203447836e+00,7.956940264085460512e+01
4.992500570917988156e+00,8.186381174715285169e+01
4.997500571632528477e+00,8.513467721811662159e+01
5.002500572347067020e+00,8.899998913783946364e+01
5.007500573061607341e+00,9.367438675875445142e+01
5.012500573776147661e+00,9.927512773992566508e+01
5.017500574490687093e+00,1.055155085572131384e+02
5.022500575205226525e+00,1.135011901868718951e+02
5.027500575919766845e+00,1.233168069922793961e+02
5.032500576634306277e+00,1.358474999270702028e+02
5.037500577348845709e+00,1.514310161445152971e+02
5.042500578063386030e+00,1.698911867807355520e+02
5.047500578777925462e+00,1.896603939957224725e+02
5.052500579492465782e+00,2.096268304948339960e+02
5.057500580207005214e+00,2.296157922534047771e+02
5.062500580921544646e+00,2.483749690441056828e+02
5.067500581636084966e+00,2.661740232943662363e+02
5.072500582350624398e+00,2.829699343246659282e+02
5.077500583065163831e+00,2.986854407313542765e+02
5.082500583779704151e+00,3.122540232968132159e+02
5.087500584494244471e+00,3.216466383879039199e+02
5.092500585208783015e+00,3.220580582880021439e+02
5.097500585923323335e+00,3.086645005915382853e+02
5.102500586637863655e+00,2.841466994930677288e+02
5.107500587352402199e+00,2.532250010021208482e+02
5.112500588066942520e+00,2.171538087439897708e+02
5.117500588781482840e+00,1.839658771726288933e+02
5.122500589496022272e+00,1.577482515120652806e+02
5.127500590210561704e+00,1.381772103833610004e+02
5.132500590925102024e+00,1.239242716639933519e+02
5.137500591639641456e+00,1.132504002515340176e+02
5.142500592354181776e+00,1.055223654855314521e+02
5.147500593068720320e+00,9.949618841314008932e+01
5.152500593783260641e+00,9.447034003131966529e+01
5.157500594497800961e+00,8.991821809347612771e+01
5.162500595212339505e+00,8.553828749033226586e+01
5.167500595926879825e+00,8.163374943938629258e+01
5.172500596641420145e+00,7.812633543022906224e+01
5.177500597355959577e+00,7.492376938275634757e+01
5.182500598070499009e+00,7.226440265693872789e+01
5.187500598785039330e+00,6.954594940439210404e+01
5.192500599499578762e+00,6.681981029885139378e+01
5.197500600214118194e+00,6.429751174516326273e+01
5.202500600928658514e+00,6.187798859413300079e+01
5.207500601643197946e+00,5.972485465034714025e+01
5.212500602357738266e+00,5.797618050420743430e+01
5.217500603072277698e+00,5.585753064131455403e+01
5.222500603786817130e+00,5.359324884286314727e+01
5.227500604501357451e+00,5.153902654502513769e+01
5.232500605215896883e+00,4.959456153035785064e+01
5.237500605930436315e+00,4.791223712703521187e+01
5.242500606644976635e+00,4.630895692564450883e+01
5.247500607359516955e+00,4.486236670302372431e+01
5.252500608074055499e+00,4.356771477383000502e+01
5.257500608788595819e+00,4.211470745929307213e+01
5.262500609503136140e+00,4.049636528839658922e+01
5.267500610217674684e+00,3.921779374983498201e+01
5.272500610932215004e+00,3.808420819436258853e+01
5.277500611646755324e+00,3.704382934261258242e+01
5.282500612361294756e+00,3.572050657612021496e+01
5.287500613075834188e+00,3.438149137482474771e+01
5.292500613790374508e+00,3.321938922137508143e+01
5.297500614504913941e+00,3.249064837066555356e+01
5.302500615219453373e+00,3.169189041624639458e+01
5.307500615933993693e+00,3.045013856181884648e+01
5.312500616648533125e+00,2.897701073646663872e+01
5.317500617363073445e+00,2.767904063959230143e+01
5.322500618077612877e+00,2.662810620771261938e+01
5.327500618792152309e+00,2.605981218282789769e+01
5.332500619506692630e+00,2.572514416515912217e+01
5.337500620221232062e+00,2.542580796862347370e+01
5.342500620935771494e+00,2.551426013841802387e+01
5.347500621650311814e+00,2.595947333188263428e+01
5.352500622364851246e+00,2.647895536147643725e+01
5.357500623079390678e+00,2.696868083540624639e+01
5.362500623793930998e+00,2.723713046427366180e+01
5.367500624508470430e+00,2.733524711576723121e+01
5.372500625223009862e+00,2.746796535568233821e+01
5.377500625937550183e+00,2.751655031511609195e+01
5.382500626652089615e+00,2.779637967289289691e+01
5.387500627366629935e+00,2.817773222978757985e+01
5.392500628081169367e+00,2.857397760579766555e+01
5.397500628795708799e+00,2.877147125967940156e+01
5.402500629510249119e+00,2.873222782879543047e+01
5.407500630224788551e+00,2.820604271115172423e+01
5.412500630939327984e+00,2.685164685055929112e+01
5.417500631653868304e+00,2.468137836749860980e+01
5.422500632368408624e+00,2.195791107474741466e+01
5.427500633082947168e+00,1.927955110824802887e+01
5.432500633797487488e+00,1.681641246421861524e+01
5.437500634512027808e+00,1.464723950892619087e+01
5.442500635226567240e+00,1.298606103142492429e+01
5.447500635941106673e+00,1.178115874941880747e+01
5.452500636655646993e+00,1.103306047333160222e+01
5.457500637370186425e+00,1.022483795787064764e+01
5.462500638084725857e+00,9.489862028989534792e+00
5.467500638799266177e+00,8.754472261622026963e+00
5.472500639513805609e+00,7.936951589064562995e+00
5.477500640228345929e+00,7.202988949465066071e+00
5.482500640942885362e+00,6.745800135435729317e+00
5.487500641657424794e+00,6.519800889762109364e+00
5.492500642371965114e+00,6.488501192517276195e+00
5.497500643086504546e+00,6.452904919266529760e+00
