1.502500072169232093e+00,3.539284855018308917e+00
1.507500072883772191e+00,5.701212057973179981e+00
1.512500073598311845e+00,7.523914611359316496e+00
1.517500074312851721e+00,9.396568999117050680e+00
1.522500075027391375e+00,1.097022083604360887e+01
1.527500075741931251e+00,1.197104784336886496e+01
1.532500076456470905e+00,1.289164406385611983e+01
1.537500077171010782e+00,1.395210998441706352e+01
1.542500077885550436e+00,1.530427620297257363e+01
1.547500078600090090e+00,1.649932431144975453e+01
1.552500079314630188e+00,1.713262335430675876e+01
1.557500080029169620e+00,1.762134826884681615e+01
1.562500080743709496e+00,1.830051873507562732e+01
1.567500081458249372e+00,1.910769158940416901e+01
1.572500082172789027e+00,1.973423648972010369e+01
1.577500082887328903e+00,2.011752344511359070e+01
1.582500083601868335e+00,1.984433471027597307e+01
1.587500084316408433e+00,1.919526789028458325e+01
1.592500085030948087e+00,1.855266443547174049e+01
1.597500085745487741e+00,1.821674126077004985e+01
1.602500086460027617e+00,1.833558344852286837e+01
1.607500087174567494e+00,1.872100120860460493e+01
1.612500087889107148e+00,1.905623254117222132e+01
1.617500088603646802e+00,1.938687954151197346e+01
1.622500089318186678e+00,1.957781760480509092e+01
1.627500090032726332e+00,1.934957240386609101e+01
1.632500090747266430e+00,1.871911581174578032e+01
1.637500091461805862e+00,1.829310933365184155e+01
1.642500092176345738e+00,1.807277473570673010e+01
1.647500092890885615e+00,1.763049929241827840e+01
1.652500093605425047e+00,1.711267394389420815e+01
1.657500094319965145e+00,1.626429048585225701e+01
1.662500095034504799e+00,1.555949579048240139e+01
1.667500095749044675e+00,1.514644656402924738e+01
1.672500096463584329e+00,1.492924906493129811e+01
1.677500097178123983e+00,1.478335219072715745e+01
1.682500097892663860e+00,1.469287659975168481e+01
1.687500098607203736e+00,1.453763255317846870e+01
1.692500099321743390e+00,1.441755230749259908e+01
1.697500100036283044e+00,1.420893403005692335e+01
1.702500100750823142e+00,1.359920133934423347e+01
1.707500101465362574e+00,1.299470971983669187e+01
1.712500102179902450e+00,1.334914619832449034e+01
1.717500102894442326e+00,1.422599884410573168e+01
1.722500103608981981e+00,1.460449550715753730e+01
1.727500104323521857e+00,1.420415827866150948e+01
1.732500105038061289e+00,1.336654789263667453e+01
1.737500105752601387e+00,1.250603888900121774e+01
1.742500106467141041e+00,1.291560576267573879e+01
1.747500107181680695e+00,1.421616379990786072e+01
1.752500107896220571e+00,1.574649218971262599e+01
1.757500108610760448e+00,1.744915933231050076e+01
1.762500109325300102e+00,1.956946694612963711e+01
1.767500110039839756e+00,2.248024866673796396e+01
1.772500110754379632e+00,2.523728998341266561e+01
1.777500111468919286e+00,2.760618372233693663e+01
1.782500112183459384e+00,3.016712742408418535e+01
1.787500112897998816e+00,3.265830714664610923e+01
1.792500113612538692e+00,3.394983546744475689e+01
1.797500114327078569e+00,3.389665677027272750e+01
1.802500115041618223e+00,3.235850575466383816e+01
1.807500115756158099e+00,3.044801535910693246e+01
1.812500116470697753e+00,2.848216330708896749e+01
1.817500117185237629e+00,2.691473671933476908e+01
1.822500117899777283e+00,2.568560580786731862e+01
1.827500118614316937e+00,2.484572388822601852e+01
1.832500119328856814e+00,2.434673920788981150e+01
1.837500120043396690e+00,2.383982308309765585e+01
1.842500120757936344e+00,2.302201390461817709e+01
1.847500121472475998e+00,2.184388926833025835e+01
1.852500122187016096e+00,2.086653009780457069e+01
1.857500122901555528e+00,1.982838466904883035e+01
1.862500123616095404e+00,1.890051764484024943e+01
1.867500124330635058e+00,1.819253049559904412e+01
1.872500125045175157e+00,1.752825731071976634e+01
1.877500125759714811e+00,1.713772037535426307e+01
1.882500126474254243e+00,1.694848149898638212e+01
1.887500127188794341e+00,1.711499993563882072e+01
1.892500127903333995e+00,1.748256061642103987e+01
1.897500128617873427e+00,1.792290648348415516e+01
1.902500129332413525e+00,1.855869528671206581e+01
1.907500130046953402e+00,1.929151472987138050e+01
1.912500130761493056e+00,1.973102066348889139e+01
1.917500131476032710e+00,2.009023128344227871e+01
1.922500132190572586e+00,2.084888773566029840e+01
1.927500132905112240e+00,2.228015700583517855e+01
1.932500133619652338e+00,2.393399984806518432e+01
1.937500134334191770e+00,2.531203651609200733e+01
1.942500135048731869e+00,2.680025551198701805e+01
1.947500135763271523e+00,2.826203117259535702e+01
1.952500136477810955e+00,3.007694203710462943e+01
1.957500137192351053e+00,3.226488584534564552e+01
1.962500137906890707e+00,3.406429609847015172e+01
1.967500138621430139e+00,3.559837131482123596e+01
1.972500139335970237e+00,3.607173031107311090e+01
1.977500140050510113e+00,3.551604819614675534e+01
1.982500140765049768e+00,3.462416282399385636e+01
1.987500141479589422e+00,3.405616610955007673e+01
1.992500142194129298e+00,3.407474949496707950e+01
1.997500142908669396e+00,3.440644052901870964e+01
2.002500143623208384e+00,3.492251107725655856e+01
2.007500144337748704e+00,3.497885159651804088e+01
2.012500145052288580e+00,3.467811713784141148e+01
2.017500145766828012e+00,3.437805865201863753e+01
2.022500146481367889e+00,3.439443437317078178e+01
2.027500147195907765e+00,3.496402252058510385e+01
2.032500147910447641e+00,3.558467867819132380e+01
2.037500148624987073e+00,3.683393931651903586e+01
2.042500149339526949e+00,3.833200397667542347e+01
2.047500150054066825e+00,3.953925114563276111e+01
2.052500150768606257e+00,3.999509934627423036e+01
2.057500151483146134e+00,3.952387872539577529e+01
2.062500152197686010e+00,3.810323926271541950e+01
2.067500152912225886e+00,3.570661903839123852e+01
2.072500153626765762e+00,3.297560751998594242e+01
2.077500154341305194e+00,3.028696216966267230e+01
2.082500155055845070e+00,2.811524883059513513e+01
2.087500155770384946e+00,2.590030389064270366e+01
2.092500156484924378e+00,2.415499185610303812e+01
2.097500157199464255e+00,2.300759427304308247e+01
2.102500157914004575e+00,2.173418888293076634e+01
2.107500158628544007e+00,2.067414645397144568e+01
2.112500159343083439e+00,1.983236467292010730e+01
2.117500160057623759e+00,1.927239559150689274e+01
2.122500160772163191e+00,1.887401399076100006e+01
2.127500161486702623e+00,1.828753257143790734e+01
2.132500162201242500e+00,1.757256538656338307e+01
2.137500162915782820e+00,1.676284718211468316e+01
2.142500163630322252e+00,1.590758472005660451e+01
2.147500164344861684e+00,1.520695482982824842e+01
2.152500165059402004e+00,1.461211051640509595e+01
2.157500165773941436e+00,1.400737090618946468e+01
2.162500166488480868e+00,1.344950958151110854e+01
2.167500167203021189e+00,1.266073554201796014e+01
2.172500167917561065e+00,1.213523007421082411e+01
2.177500168632100497e+00,1.193016238068560142e+01
2.182500169346640373e+00,1.163132679134594127e+01
2.187500170061180249e+00,1.132305243549836860e+01
2.192500170775719681e+00,1.091672497443619250e+01
2.197500171490259557e+00,1.039498826560958378e+01
2.202500172204799433e+00,9.600104962287616672e+00
2.207500172919339310e+00,8.792031468634377234e+00
2.212500173633879186e+00,8.429454320514537358e+00
2.217500174348418618e+00,8.398183743980894178e+00
2.222500175062958494e+00,8.528579196132000106e+00
2.227500175777497926e+00,8.739836478185509350e+00
2.232500176492037802e+00,8.806162055532581689e+00
2.237500177206577678e+00,8.440574330868969355e+00
2.242500177921117555e+00,8.051434409464661712e+00
2.247500178635657431e+00,7.761428036261975194e+00
2.252500179350196863e+00,7.543582445035610817e+00
2.257500180064736739e+00,7.111097904773203027e+00
2.262500180779277059e+00,6.546681219134597995e+00
2.267500181493816047e+00,5.991968337195658023e+00
2.272500182208355923e+00,5.619539737585228067e+00
2.277500182922896244e+00,5.593857931719583121e+00
2.282500183637435676e+00,5.641183238478845396e+00
2.287500184351975108e+00,5.770276912357587662e+00
2.292500185066515428e+00,5.826936058682292696e+00
2.297500185781055304e+00,5.580266830039704473e+00
2.302500186495594292e+00,5.086484478133058929e+00
2.307500187210134612e+00,4.346353542318297514e+00
2.312500187924674488e+00,3.989208848647365357e+00
2.317500188639213921e+00,4.062750434655754361e+00
2.322500189353753797e+00,4.264763522940086204e+00
2.327500190068293673e+00,4.306003045479315006e+00
2.332500190782833549e+00,4.517310345654948378e+00
2.337500191497372981e+00,4.995578757187274732e+00
2.342500192211912857e+00,5.707726995537598214e+00
2.347500192926452733e+00,6.539740908648354889e+00
2.352500193640992165e+00,7.805279436636055834e+00
2.357500194355532042e+00,9.355629448401373338e+00
2.362500195070071918e+00,1.034075310750330345e+01
2.367500195784611794e+00,1.053399490596973465e+01
2.372500196499151670e+00,9.882008424637717781e+00
2.377500197213691102e+00,8.502833728227244592e+00
2.382500197928230978e+00,7.125106352180978320e+00
2.387500198642770854e+00,5.965254570722947847e+00
2.392500199357310287e+00,5.215872201995409796e+00
2.397500200071850163e+00,4.512393415119731799e+00
2.402500200786390039e+00,4.185900349727489811e+00
2.407500201500929915e+00,4.059601389758029200e+00
2.412500202215469347e+00,3.878823841525786520e+00
2.417500202930009223e+00,3.509591816836575617e+00
2.422500203644549099e+00,2.919857924669656768e+00
2.427500204359088531e+00,2.349150490175759387e+00
2.432500205073628408e+00,2.083292795133274922e+00
2.437500205788168728e+00,2.217220462907960155e+00
2.442500206502708160e+00,2.239850845339844909e+00
2.447500207217247592e+00,2.437189714291434939e+00
2.452500207931787912e+00,2.759915492233119494e+00
2.457500208646327344e+00,2.755477642958965134e+00
2.462500209360866776e+00,2.725567376731760305e+00
2.467500210075407097e+00,2.573499244074184844e+00
2.472500210789946973e+00,2.645000932661332627e+00
2.477500211504486405e+00,2.708682019267655505e+00
2.482500212219026281e+00,2.830362584971965134e+00
2.487500212933566157e+00,2.843257543227878159e+00
2.492500213648105589e+00,2.899917559711695958e+00
2.497500214362645465e+00,3.146087696753738783e+00
2.502500215077185342e+00,3.313206194467852583e+00
2.507500215791725218e+00,3.577871025296985863e+00
2.512500216506264650e+00,3.502025442676426792e+00
2.517500217220804526e+00,3.239317846082428787e+00
2.522500217935344402e+00,2.933600317935542989e+00
2.527500218649883834e+00,2.543208410482407089e+00
2.532500219364423710e+00,2.479236293985366046e+00
2.537500220078963586e+00,2.381263076767254461e+00
2.542500220793503463e+00,2.469312035392306370e+00
2.547500221508043339e+00,2.691647247170635637e+00
2.552500222222582771e+00,2.845531648426344873e+00
2.557500222937122647e+00,3.261797348603806768e+00
2.562500223651662967e+00,4.075261891622233179e+00
2.567500224366201955e+00,5.174923569945235613e+00
2.572500225080741831e+00,5.952527099961059776e+00
2.577500225795282152e+00,6.887921289531334423e+00
2.582500226509821584e+00,8.228563434037766910e+00
2.587500227224361016e+00,1.060447903467832020e+01
2.592500227938901336e+00,1.429797615541491496e+01
2.597500228653441212e+00,1.854964518029851206e+01
2.602500229367980644e+00,2.226310124655509526e+01
2.607500230082520076e+00,2.447834240031329500e+01
2.612500230797060397e+00,2.448634310387785717e+01
2.617500231511599829e+00,2.248429715704821774e+01
2.622500232226139261e+00,1.880642214186013916e+01
2.627500232940679581e+00,1.500486152356074854e+01
2.632500233655219457e+00,1.245521443711493248e+01
2.637500234369758889e+00,1.086245609869632744e+01
2.642500235084298765e+00,9.985028383179155753e+00
2.647500235798838641e+00,9.414167218020907058e+00
2.652500236513378074e+00,8.868031002521604478e+00
2.657500237227917950e+00,8.590443284879597741e+00
2.662500237942457826e+00,8.910768251734566547e+00
2.667500238656997702e+00,9.732069909101767280e+00
2.672500239371537578e+00,1.098689211290212597e+01
2.677500240086077010e+00,1.320094875572692672e+01
2.682500240800616886e+00,1.625591063327954089e+01
2.687500241515156763e+00,2.017544670533135331e+01
2.692500242229696195e+00,2.425992868674512692e+01
2.697500242944236071e+00,2.768939735723427020e+01
2.702500243658775947e+00,2.957828058009346250e+01
2.707500244373315823e+00,2.931145287365080776e+01
2.712500245087855255e+00,2.690275592020805107e+01
2.717500245802395131e+00,2.294629251246783497e+01
2.722500246516935007e+00,1.916189774604242757e+01
2.727500247231474440e+00,1.633947495804380878e+01
2.732500247946014316e+00,1.475806311097528578e+01
2.737500248660554636e+00,1.392375183286026186e+01
2.742500249375094068e+00,1.357377077376560237e+01
2.747500250089633500e+00,1.354132725333039389e+01
2.752500250804173820e+00,1.386922320515640195e+01
2.757500251518713252e+00,1.436377973837636546e+01
2.762500252233252684e+00,1.501726145506989951e+01
2.767500252947793005e+00,1.624627977157473424e+01
2.772500253662332881e+00,1.787336030228732398e+01
2.777500254376872313e+00,1.967403148368691745e+01
2.782500255091412189e+00,2.121779747569314623e+01
2.787500255805952065e+00,2.248022922707536964e+01
2.792500256520491497e+00,2.349271423225832223e+01
2.797500257235031373e+00,2.436830492092985878e+01
2.802500257949571250e+00,2.539595694021699046e+01
2.807500258664111126e+00,2.689846982942998466e+01
2.812500259378650558e+00,2.892111617135930146e+01
2.817500260093190434e+00,3.144676000137542360e+01
2.822500260807730310e+00,3.486018175948771614e+01
2.827500261522270186e+00,3.981044401387862308e+01
2.832500262236809618e+00,4.637834141294348456e+01
2.837500262951349495e+00,5.540736382091574797e+01
2.842500263665889371e+00,6.697662722692024317e+01
2.847500264380429247e+00,8.104989107979878327e+01
2.852500265094968679e+00,9.537732220495735191e+01
2.857500265809508555e+00,1.078545646294100493e+02
2.862500266524048875e+00,1.179304239087643396e+02
2.867500267238588307e+00,1.268972418838876592e+02
2.872500267953127739e+00,1.381703461445965218e+02
2.877500268667668060e+00,1.559506782042727764e+02
2.882500269382207492e+00,1.813168345162718538e+02
2.887500270096746924e+00,2.156748955762577111e+02
2.892500270811286800e+00,2.594488556104682289e+02
2.897500271525826676e+00,3.137956799495195810e+02
2.902500272240366552e+00,3.766545298826718522e+02
2.907500272954905984e+00,4.444465002073985147e+02
2.912500273669446305e+00,5.095699805582453905e+02
2.917500274383985737e+00,5.555208336302146108e+02
2.922500275098525169e+00,5.611136476208891963e+02
2.927500275813065489e+00,5.346105204108323505e+02
2.932500276527604921e+00,4.739161279236680571e+02
2.937500277242144797e+00,3.872069355525579795e+02
2.942500277956684673e+00,3.016594696452685866e+02
2.947500278671224549e+00,2.313220826415717966e+02
2.952500279385763982e+00,1.776416864723590265e+02
2.957500280100304302e+00,1.383677747771079680e+02
2.962500280814843734e+00,1.104530881877481647e+02
2.967500281529383166e+00,9.158245344064425808e+01
2.972500282243923486e+00,7.705565691240320803e+01
2.977500282958462918e+00,6.545968583145292996e+01
2.982500283673002794e+00,5.639928858141394130e+01
2.987500284387542226e+00,4.941784262165094788e+01
2.992500285102082547e+00,4.358060644102152992e+01
2.997500285816621979e+00,3.929490998818062053e+01
3.002500286531161411e+00,3.580783533625458404e+01
3.007500287245701731e+00,3.262763391977449601e+01
3.012500287960241163e+00,2.980479342980635238e+01
3.017500288674781039e+00,2.736044357626275314e+01
3.022500289389320915e+00,2.536728870567793592e+01
3.027500290103860792e+00,2.376680750882042048e+01
3.032500290818400224e+00,2.244176278689320725e+01
3.037500291532940100e+00,2.108573880562016711e+01
3.042500292247479976e+00,1.967823895205975759e+01
3.047500292962019408e+00,1.850482733672663471e+01
3.052500293676559728e+00,1.749428699726996683e+01
3.057500294391099160e+00,1.673506887363055284e+01
3.062500295105639037e+00,1.622968633983316522e+01
3.067500295820178913e+00,1.622024621038383430e+01
3.072500296534718789e+00,1.657199366267593632e+01
3.077500297249258221e+00,1.693529954220520040e+01
3.082500297963798097e+00,1.707161861504397393e+01
3.087500298678337973e+00,1.676031940234241802e+01
3.092500299392877405e+00,1.602338510857458687e+01
3.097500300107417281e+00,1.514875956931030032e+01
3.102500300821957158e+00,1.403138118726411676e+01
3.107500301536497034e+00,1.268069025701055352e+01
3.112500302251036466e+00,1.158964752016419197e+01
3.117500302965576342e+00,1.081023465414779139e+01
3.122500303680116218e+00,1.030504729025335564e+01
3.127500304394655650e+00,9.909239594198197665e+00
3.132500305109195970e+00,9.409869969723501981e+00
3.137500305823735403e+00,8.872835873516180527e+00
3.142500306538275279e+00,8.543966344970556293e+00
3.147500307252815155e+00,8.414024448054192362e+00
3.152500307967354587e+00,8.452624508092128508e+00
3.157500308681894463e+00,8.633103938389638188e+00
3.162500309396434339e+00,8.816678514117029408e+00
3.167500310110974215e+00,8.808747304393193645e+00
3.172500310825513647e+00,8.584509127801936756e+00
3.177500311540053524e+00,8.260428617280240360e+00
3.182500312254593400e+00,7.926633681485100169e+00
3.187500312969132832e+00,7.594089577486727194e+00
3.192500313683672708e+00,7.323840854549473534e+00
3.197500314398212584e+00,7.137381227597074940e+00
3.202500315112752460e+00,6.959005872549425931e+00
3.207500315827291892e+00,7.129849512669977685e+00
3.212500316541832213e+00,7.758411321317055354e+00
3.217500317256371645e+00,8.422337148908411564e+00
3.222500317970911521e+00,8.846428556524529085e+00
3.227500318685451397e+00,9.259393304584193629e+00
3.232500319399990829e+00,9.691849503628134244e+00
3.237500320114530705e+00,9.770270927206126998e+00
3.242500320829070581e+00,9.785437939996768364e+00
3.247500321543610458e+00,1.015313085756304190e+01
3.252500322258149890e+00,1.077542755415174724e+01
3.257500322972690210e+00,1.149858920525559824e+01
3.262500323687229642e+00,1.217897825673293255e+01
3.267500324401769074e+00,1.276560847400361354e+01
3.272500325116308950e+00,1.304770353616277134e+01
3.277500325830848826e+00,1.338620338399766752e+01
3.282500326545388702e+00,1.371883013831342168e+01
3.287500327259928135e+00,1.413876241669305500e+01
3.292500327974468455e+00,1.451972688658327115e+01
3.297500328689007887e+00,1.459522189845370121e+01
3.302500329403547319e+00,1.452626650957938637e+01
3.307500330118087639e+00,1.479239169531945208e+01
3.312500330832627071e+00,1.580846163851725805e+01
3.317500331547166947e+00,1.722966640561708118e+01
3.322500332261706824e+00,1.866612155637153592e+01
3.327500332976246700e+00,1.950876536096711789e+01
3.332500333690786132e+00,1.964804776519406460e+01
3.337500334405326008e+00,1.936016085951968080e+01
3.342500335119865884e+00,1.855038604737745800e+01
3.347500335834405316e+00,1.780317339118761311e+01
3.352500336548945636e+00,1.725766041149955754e+01
3.357500337263485068e+00,1.715994869863175154e+01
3.362500337978024945e+00,1.742261319032508027e+01
3.367500338692564377e+00,1.785373659587651218e+01
3.372500339407104697e+00,1.843883078316139290e+01
3.377500340121644129e+00,1.899867369299755637e+01
3.382500340836183561e+00,1.972763941756750228e+01
3.387500341550723881e+00,2.094095161868301602e+01
3.392500342265263313e+00,2.233536468042200340e+01
3.397500342979803190e+00,2.403188831879356258e+01
3.402500343694343066e+00,2.593534568749458913e+01
3.407500344408882942e+00,2.790624837819507320e+01
3.412500345123422374e+00,2.971288382316407706e+01
3.417500345837962250e+00,3.147113463148838264e+01
3.422500346552502126e+00,3.305210188036477348e+01
3.427500347267041558e+00,3.420133729311061188e+01
3.432500347981581879e+00,3.496895798553026680e+01
3.437500348696121311e+00,3.515526414196659744e+01
3.442500349410661187e+00,3.497413012885095895e+01
3.447500350125201063e+00,3.450597690707780885e+01
3.452500350839740495e+00,3.375517559672198331e+01
3.457500351554280371e+00,3.297362535815904039e+01
3.462500352268820247e+00,3.210780539427713620e+01
3.467500352983360123e+00,3.112293266557804827e+01
3.472500353697899556e+00,3.043100144121262929e+01
3.477500354412439432e+00,3.015143393399881688e+01
3.482500355126979308e+00,3.018276609168759705e+01
3.487500355841518740e+00,3.047486439408555725e+01
3.492500356556058616e+00,3.100341315798908681e+01
3.497500357270598492e+00,3.193098631477084837e+01
3.502500357985138368e+00,3.330281767429454476e+01
3.507500358699677800e+00,3.498167641343474088e+01
3.512500359414218121e+00,3.677045618764304891e+01
3.517500360128757553e+00,3.855542464290221005e+01
3.522500360843297429e+00,3.989170315228841446e+01
3.527500361557837305e+00,4.027795553690503993e+01
3.532500362272376737e+00,3.972294690400337913e+01
3.537500362986916613e+00,3.808920209447609295e+01
3.542500363701456489e+00,3.562132599558236734e+01
3.547500364415996366e+00,3.302388440054699004e+01
3.552500365130535798e+00,3.065485493651704019e+01
3.557500365845075674e+00,2.892983238704687210e+01
3.562500366559615550e+00,2.765314441497298503e+01
3.567500367274154982e+00,2.700515625013036924e+01
3.572500367988694858e+00,2.667343524034794200e+01
3.577500368703234734e+00,2.665212829306813092e+01
3.582500369417774611e+00,2.675865499079179699e+01
3.587500370132314043e+00,2.632258088230287285e+01
3.592500370846854363e+00,2.568607524654811414e+01
3.597500371561393795e+00,2.513915279206156583e+01
3.602500372275933227e+00,2.450020954584016408e+01
3.607500372990473547e+00,2.386162832229604192e+01
3.612500373705012979e+00,2.331066495392627758e+01
3.617500374419552855e+00,2.287817876026139174e+01
3.622500375134092732e+00,2.234652439376600341e+01
3.627500375848632608e+00,2.198652083417545100e+01
3.632500376563172040e+00,2.169136252150173050e+01
3.637500377277712360e+00,2.162459909255454704e+01
3.642500377992251792e+00,2.151435535183526326e+01
3.647500378706791224e+00,2.130350827367902866e+01
3.652500379421331100e+00,2.107064647509940869e+01
3.657500380135870977e+00,2.075641909292698983e+01
3.662500380850410853e+00,2.059505433868213231e+01
3.667500381564950285e+00,2.050736486985181273e+01
3.672500382279490605e+00,2.034140941116464774e+01
3.677500382994030037e+00,2.016857429774034927e+01
3.682500383708569469e+00,2.004541429558076970e+01
3.687500384423109789e+00,1.990705470135645783e+01
3.692500385137649221e+00,1.964589617656696419e+01
3.697500385852189098e+00,1.917747168130921409e+01
3.702500386566728974e+00,1.854902801741889107e+01
3.707500387281268850e+00,1.799476264504841083e+01
3.712500387995808282e+00,1.738519502072807654e+01
3.717500388710348158e+00,1.648388046472172164e+01
3.722500389424888034e+00,1.568025928228888688e+01
3.727500390139427910e+00,1.516949685174051865e+01
3.732500390853967343e+00,1.489236399569858804e+01
3.737500391568507219e+00,1.497151627813354935e+01
3.742500392283047095e+00,1.503427842835549200e+01
3.747500392997586527e+00,1.506548857945580266e+01
3.752500393712126403e+00,1.481060495791979292e+01
3.757500394426666279e+00,1.442789704589461053e+01
3.762500395141205711e+00,1.398972731962754779e+01
3.767500395855746476e+00,1.358051267540315621e+01
3.772500396570285464e+00,1.314456378516581481e+01
3.777500397284825340e+00,1.274545399315860550e+01
3.782500397999365660e+00,1.249418093716832345e+01
3.787500398713904648e+00,1.250784574789543058e+01
3.792500399428444524e+00,1.253978000222866740e+01
3.797500400142984844e+00,1.264073957105006230e+01
3.802500400857523832e+00,1.259799153344442857e+01
3.807500401572063708e+00,1.247364425497073626e+01
3.812500402286604029e+00,1.193200944835422206e+01
3.817500403001143017e+00,1.131778820878633951e+01
3.822500403715683781e+00,1.082489425625499280e+01
3.827500404430223213e+00,1.046160286146761109e+01
3.832500405144762201e+00,1.024955597294456311e+01
3.837500405859302965e+00,1.009213990270592376e+01
3.842500406573842398e+00,1.020258591234664891e+01
3.847500407288382274e+00,1.047140185379981858e+01
3.852500408002922150e+00,1.088571421048743559e+01
3.857500408717461138e+00,1.117141897636264503e+01
3.862500409432001458e+00,1.140786671463712310e+01
3.867500410146541334e+00,1.172763062432056813e+01
3.872500410861080322e+00,1.182984272199348652e+01
3.877500411575620642e+00,1.189627050209389836e+01
3.882500412290160519e+00,1.171912455423569099e+01
3.887500413004699507e+00,1.115125387583685779e+01
3.892500413719240715e+00,1.030084802068552108e+01
3.897500414433779703e+00,9.508670985785215635e+00
3.902500415148318691e+00,8.781532891168922106e+00
3.907500415862859899e+00,8.383568056195713325e+00
3.912500416577398887e+00,8.455650282878082180e+00
3.917500417291938763e+00,8.783459262255178146e+00
3.922500418006479084e+00,9.108729353811554574e+00
3.927500418721018072e+00,9.340583814114495453e+00
3.932500419435557948e+00,9.296898322325091613e+00
3.937500420150097824e+00,9.073289017426418468e+00
3.942500420864637256e+00,8.571005564748872985e+00
3.947500421579177132e+00,8.371717533041021397e+00
3.952500422293717008e+00,8.315639394585616628e+00
3.957500423008256440e+00,8.059941169847547826e+00
3.962500423722797205e+00,7.645490370948039072e+00
3.967500424437336193e+00,7.153376659981290686e+00
3.972500425151876513e+00,6.791581771003222912e+00
3.977500425866416389e+00,6.347036394909480350e+00
3.982500426580955377e+00,5.749157777203208752e+00
3.987500427295495697e+00,5.149805772793172309e+00
3.992500428010035574e+00,4.760013803134711452e+00
3.997500428724574562e+00,4.658826746964223275e+00
4.002500429439114882e+00,4.849697424782391408e+00
4.007500430153654314e+00,5.071460720054574267e+00
4.012500430868193746e+00,5.166528159396534647e+00
4.017500431582734066e+00,5.172837375570679797e+00
4.022500432297273498e+00,5.288695857590198557e+00
4.027500433011812930e+00,5.584023626605812751e+00
4.032500433726354139e+00,6.043535609055595614e+00
4.037500434440892683e+00,6.193298033251664947e+00
4.042500435155433003e+00,6.314168370889319704e+00
4.047500435869973323e+00,6.580802905506686784e+00
4.052500436584511867e+00,7.022746820476015728e+00
4.057500437299052187e+00,8.128926386603723131e+00
4.062500438013592508e+00,9.496605261057482039e+00
4.067500438728131051e+00,1.097759420426081078e+01
4.072500439442671372e+00,1.281341343350669604e+01
4.077500440157211692e+00,1.506391200781939688e+01
4.082500440871750236e+00,1.786596533781738572e+01
4.087500441586291444e+00,2.135995834010418548e+01
4.092500442300830876e+00,2.598504300572329839e+01
4.097500443015369420e+00,3.157844259947052024e+01
4.102500443729910629e+00,3.733046874983125463e+01
4.107500444444450061e+00,4.276999508188572463e+01
4.112500445158989493e+00,4.806121014708770645e+01
4.117500445873529813e+00,5.315068163234127496e+01
4.122500446588069245e+00,5.768303629173095715e+01
4.127500447302608677e+00,6.114344651887802229e+01
4.132500448017148997e+00,6.317678317906091934e+01
4.137500448731688429e+00,6.348107874406895235e+01
4.142500449446227861e+00,6.213141034893209280e+01
4.147500450160768182e+00,5.910226917677255187e+01
4.152500450875307614e+00,5.476914737295498981e+01
4.157500451589847934e+00,4.966580122876638370e+01
4.162500452304387366e+00,4.403835884751657659e+01
4.167500453018926798e+00,3.832023469540467886e+01
4.172500453733467118e+00,3.256251900590035575e+01
4.177500454448006550e+00,2.735087841459295532e+01
4.182500455162545983e+00,2.288239922099353407e+01
4.187500455877086303e+00,1.908091331635102961e+01
4.192500456591625735e+00,1.593342396498496782e+01
4.197500457306165167e+00,1.355248373405396478e+01
4.202500458020705487e+00,1.167054874168320566e+01
4.207500458735244919e+00,1.003698183087243478e+01
4.212500459449784351e+00,8.632621661373036659e+00
4.217500460164324672e+00,7.659162592579036755e+00
4.222500460878864104e+00,6.947174703137193319e+00
4.227500461593404424e+00,6.069476593758793115e+00
4.232500462307943856e+00,5.118967418546958470e+00
4.237500463022484176e+00,4.328622002261738544e+00
4.242500463737023608e+00,3.818286494692301858e+00
4.247500464451563040e+00,3.530591456670435946e+00
4.252500465166103361e+00,3.257807328895978571e+00
4.257500465880642793e+00,3.166746775760884702e+00
4.262500466595182225e+00,3.201779822142952980e+00
4.267500467309722545e+00,3.022730581994096610e+00
4.272500468024261977e+00,2.955347229116853214e+00
4.277500468738801409e+00,2.837188227706405996e+00
4.282500469453341729e+00,2.485578875390103804e+00
4.287500470167881161e+00,2.377329320878118324e+00
4.292500470882420593e+00,2.122245306221770988e+00
4.297500471596961802e+00,2.027764397352711967e+00
4.302500472311500346e+00,1.752367849387155729e+00
4.307500473026040666e+00,1.556251993414718982e+00
4.312500473740580986e+00,1.370053822504360141e+00
4.317500474455119530e+00,9.565331206801488406e-01
4.322500475169659850e+00,8.210338887695343146e-01
4.327500475884200171e+00,9.324926452532622534e-01
4.332500476598738715e+00,8.732492173473929142e-01
4.337500477313279035e+00,5.783961063050924167e-01
4.342500478027819355e+00,1.794674523258663612e-01
4.347500478742357899e+00,7.557550923155531564e-02
4.352500479456899107e+00,0.000000000000000000e+00
4.357500480171438539e+00,1.823499182984278377e-02
4.362500480885977083e+00,2.643780563616928703e-01
4.367500481600518292e+00,6.578966271632111784e-01
4.372500482315056836e+00,1.303255685340786840e+00
4.377500483029597156e+00,2.084125523273144154e+00
4.382500483744137476e+00,2.983785797409552742e+00
4.387500484458676020e+00,3.633160196300252665e+00
4.392500485173216340e+00,3.937708530502391113e+00
4.397500485887756660e+00,3.933933080297322249e+00
4.402500486602295204e+00,3.303965998095804935e+00
4.407500487316835525e+00,2.395985568263881760e+00
4.412500488031375845e+00,1.412723287261201222e+00
4.417500488745914389e+00,6.993666957324080613e-01
4.422500489460455597e+00,4.023118199721693600e-01
4.427500490174995029e+00,1.977093145632125015e-01
4.432500490889533573e+00,1.660982514962370260e-01
4.437500491604074782e+00,3.209400557757930983e-01
4.442500492318614214e+00,3.535831050867273007e-01
4.447500493033153646e+00,3.419419290715950410e-01
4.452500493747693966e+00,4.867642992297760429e-01
4.457500494462233398e+00,7.942484164754546327e-01
4.462500495176772830e+00,1.105644961974292073e+00
4.467500495891313150e+00,1.485043962433906017e+00
4.472500496605852582e+00,2.198287143675031530e+00
4.477500497320392014e+00,2.884354649436829732e+00
4.482500498034932335e+00,3.406134084400036954e+00
4.487500498749471767e+00,3.902758160725568359e+00
4.492500499464012087e+00,4.386467491077837622e+00
4.497500500178551519e+00,4.849544182428417116e+00
4.502500500893091839e+00,5.357085273608674925e+00
4.507500501607631271e+00,6.123723926769173431e+00
4.512500502322170703e+00,6.688403597354977137e+00
4.517500503036711024e+00,6.908488141578686736e+00
4.522500503751250456e+00,6.647994238347621376e+00
4.527500504465789888e+00,6.190005940097364601e+00
4.532500505180330208e+00,5.526713735341786560e+00
4.537500505894869640e+00,4.910470456927839678e+00
4.542500506609409072e+00,4.938324973492456138e+00
4.547500507323949392e+00,5.071126193418194816e+00
4.552500508038488825e+00,5.124459344180877451e+00
4.557500508753028257e+00,5.244994849351598987e+00
4.562500509467568577e+00,5.582027635286920031e+00
4.567500510182108009e+00,6.055940265943547729e+00
4.572500510896648329e+00,6.603625306207561607e+00
4.577500511611187761e+00,7.005725312177730757e+00
4.582500512325727193e+00,7.472814471837750716e+00
4.587500513040267514e+00,7.817273605105015122e+00
4.592500513754806946e+00,7.842236697079158603e+00
4.597500514469346378e+00,7.527137773091112649e+00
4.602500515183886698e+00,7.117707236639375878e+00
4.607500515898426130e+00,6.903834418264239048e+00
4.612500516612965562e+00,6.587975778719737718e+00
4.617500517327505882e+00,6.219297975425376990e+00
4.622500518042045314e+00,5.954420050011151488e+00
4.627500518756584746e+00,5.820383399066315633e+00
4.632500519471125955e+00,5.877798746841108368e+00
4.637500520185664499e+00,6.113912551539840479e+00
4.642500520900204819e+00,6.396617015132335382e+00
4.647500521614745139e+00,6.513634653709857503e+00
4.652500522329283683e+00,6.600466295575586173e+00
4.657500523043824003e+00,6.736887663319691910e+00
4.662500523758364324e+00,7.130451571128048727e+00
4.667500524472902868e+00,7.340029184590889599e+00
4.672500525187443188e+00,7.602988975823336659e+00
4.677500525901983508e+00,8.019095649288772165e+00
4.682500526616522052e+00,8.880130503170164502e+00
4.687500527331063260e+00,1.003689582394173385e+01
4.692500528045602692e+00,1.106007304070863029e+01
4.697500528760141236e+00,1.186827448305967891e+01
4.702500529474682445e+00,1.278794938696881900e+01
4.707500530189221877e+00,1.367243296710046252e+01
4.712500530903761309e+00,1.449148499106973986e+01
4.717500531618301629e+00,1.479033518963808547e+01
4.722500532332841061e+00,1.467866641105098324e+01
4.727500533047380493e+00,1.447911315623332484e+01
4.732500533761920813e+00,1.460799888351670006e+01
4.737500534476460246e+00,1.480916169227242563e+01
4.742500535190999678e+00,1.492617111982519873e+01
4.747500535905539998e+00,1.481285060242981899e+01
4.752500536620079430e+00,1.486202503390308038e+01
4.757500537334618862e+00,1.470266432034981108e+01
4.762500538049159182e+00,1.469786922004459484e+01
4.767500538763698614e+00,1.474003735909400348e+01
4.772500539478238046e+00,1.507306782131871614e+01
4.777500540192778367e+00,1.559924591391575177e+01
4.782500540907317799e+00,1.650897339210399650e+01
4.787500541621858119e+00,1.770120913299024323e+01
4.792500542336397551e+00,1.841838734849608272e+01
4.797500543050936983e+00,1.920167881586252179e+01
4.802500543765477303e+00,1.996429410034323837e+01
4.807500544480016735e+00,2.086605630914635867e+01
4.812500545194556167e+00,2.191908346451640455e+01
4.817500545909096488e+00,2.287078410924016225e+01
4.822500546623636808e+00,2.393121326371152691e+01
4.827500547338175352e+00,2.481121939862356385e+01
4.832500548052715672e+00,2.562127866351875127e+01
4.837500548767255992e+00,2.678992140049609816e+01
4.842500549481794536e+00,2.785010909736934082e+01
4.847500550196334856e+00,2.891131080371786766e+01
4.852500550910875177e+00,2.973961177349838181e+01
4.857500551625414609e+00,3.058525863109383636e+01
4.862500552339954041e+00,3.149894355103589305e+01
4.867500553054494361e+00,3.263734625022345881e+01
4.872500553769033793e+00,3.389683149772406523e+01
4.877500554483574113e+00,3.555526430035166641e+01
4.882500555198113545e+00,3.759061341832563130e+01
4.887500555912652977e+00,3.964631391413053052e+01
4.892500556627193298e+00,4.175654791426785550e+01
4.897500557341732730e+00,4.387099436514705530e+01
4.902500558056272162e+00,4.593606682608634628e+01
4.907500558770812482e+00,4.790242079356409022e+01
4.912500559485352802e+00,5.018677621101437580e+01
4.917500560199891346e+00,5.262623265440646492e+01
4.922500560914431667e+00,5.455135893188463569e+01
4.927500561628971987e+00,5.601486129669041247e+01
4.932500562343510531e+00,5.719374409172422702e+01
4.937500563058050851e+00,5.828316961285725029e+01
4.942500563772590283e+00,5.978259092146180365e+01
4.947500564487130603e+00,6.191112660030131565e+01
4.952500565201670035e+00,6.461519014809118744e+01
4.957500565916209467e+00,6.770316405179448793e+01
4.962500566630749788e+00,7.022287171047975107e+01
4.967500567345289220e+00,7.252825834355365942e+01
4.972500568059828652e+00,7.444412487750889795e+01
4.977500568774368972e+00,7.692903077798501954e+01
4.982500569488909292e+00,8.020517686229686660e+01
4.987500570203447836e+00,8.405592116860418628e+01
4.992500570917988156e+00,8.911648940515942741e+01
4.997500571632528477e+00,9.401823154213235512e+01
5.002500572347067020e+00,9.906458616710773413e+01
5.007500573061607341e+00,1.047935499675351139e+02
5.012500573776147661e+00,1.112487043420845225e+02
5.017500574490687093e+00,1.184920022659090932e+02
5.022500575205226525e+00,1.260633935348133718e+02
5.027500575919766845e+00,1.338515217867645219e+02
5.032500576634306277e+00,1.417561085351235874e+02
5.037500577348845709e+00,1.496221877878124928e+02
5.042500578063386030e+00,1.574262327563257600e+02
5.047500578777925462e+00,1.648809532190386449e+02
5.052500579492465782e+00,1.714399341931083995e+02
5.057500580207005214e+00,1.772051981903604201e+02
5.062500580921544646e+00,1.818256121997367813e+02
5.067500581636084966e+00,1.846356205974777254e+02
5.072500582350624398e+00,1.853039267877735483e+02
5.077500583065163831e+00,1.839152192770088163e+02
5.082500583779704151e+00,1.807411067323820362e+02
5.087500584494244471e+00,1.751488704233370868e+02
5.092500585208783015e+00,1.675490960575268673e+02
5.097500585923323335e+00,1.591231518081813761e+02
5.102500586637863655e+00,1.506367869469458469e+02
5.107500587352402199e+00,1.421544567950777491e+02
5.112500588066942520e+00,1.339012001648773662e+02
5.117500588781482840e+00,1.265283253948693414e+02
5.122500589496022272e+00,1.199745248517795631e+02
5.127500590210561704e+00,1.136511471473572215e+02
5.132500590925102024e+00,1.079336522165232850e+02
5.137500591639641456e+00,1.031227624404419885e+02
5.142500592354181776e+00,9.884982763677959383e+01
5.147500593068720320e+00,9.443900767691428655e+01
5.152500593783260641e+00,9.069523635314845933e+01
5.157500594497800961e+00,8.793110736506048397e+01
5.162500595212339505e+00,8.532502861640290348e+01
5.167500595926879825e+00,8.263429594559357838e+01
5.172500596641420145e+00,7.967757603589672044e+01
5.177500597355959577e+00,7.654627116153795896e+01
5.182500598070499009e+00,7.377621108225986291e+01
5.187500598785039330e+00,7.136666549451553010e+01
5.192500599499578762e+00,6.909675028149200671e+01
5.197500600214118194e+00,6.685684841156955827e+01
5.202500600928658514e+00,6.493523103209463443e+01
5.207500601643197946e+00,6.325258505729181024e+01
5.212500602357738266e+00,6.155680686945925117e+01
5.217500603072277698e+00,5.975341613734821067e+01
5.222500603786817130e+00,5.774604043532696096e+01
5.227500604501357451e+00,5.590922408129273435e+01
5.232500605215896883e+00,5.421678507028622107e+01
5.237500605930436315e+00,5.247310779912402268e+01
5.242500606644976635e+00,5.058413916016831990e+01
5.247500607359516955e+00,4.867720055306784843e+01
5.252500608074055499e+00,4.706107089259143095e+01
5.257500608788595819e+00,4.466449368872662262e+01
5.262500609503136140e+00,4.155601347248239108e+01
5.267500610217674684e+00,3.906369625489321606e+01
5.272500610932215004e+00,3.688877698797904259e+01
5.277500611646755324e+00,3.511930092218545951e+01
5.282500612361294756e+00,3.389269074507780033e+01
5.287500613075834188e+00,3.278859936456319701e+01
5.292500613790374508e+00,3.172911742844303262e+01
5.297500614504913941e+00,3.066261121505709752e+01
5.302500615219453373e+00,2.953647043603882594e+01
5.307500615933993693e+00,2.844777351953706557e+01
5.312500616648533125e+00,2.751071925086199599e+01
5.317500617363073445e+00,2.678118731937894381e+01
5.322500618077612877e+00,2.623894657048094814e+01
5.327500618792152309e+00,2.583147824779655366e+01
5.332500619506692630e+00,2.535031876664521633e+01
5.337500620221232062e+00,2.489907729218253962e+01
5.342500620935771494e+00,2.441434028043420312e+01
5.347500621650311814e+00,2.412975228886278956e+01
5.352500622364851246e+00,2.367223790021364493e+01
5.357500623079390678e+00,2.309450294323687558e+01
5.362500623793930998e+00,2.242941681692576594e+01
5.367500624508470430e+00,2.142701200225286584e+01
5.372500625223009862e+00,2.036606853484471458e+01
5.377500625937550183e+00,1.919083275500167929e+01
5.382500626652089615e+00,1.787683151669813242e+01
5.387500627366629935e+00,1.617940734385280166e+01
5.392500628081169367e+00,1.436287492448576586e+01
5.397500628795708799e+00,1.293858873769045204e+01
5.402500629510249119e+00,1.187868817083892736e+01
5.407500630224788551e+00,1.078861338873946352e+01
5.412500630939327984e+00,9.747376329748362878e+00
5.417500631653868304e+00,8.876499914772693955e+00
5.422500632368408624e+00,8.072043193770412017e+00
5.427500633082947168e+00,7.203942166081276355e+00
5.432500633797487488e+00,6.415143081225266997e+00
5.437500634512027808e+00,5.599751852981910361e+00
5.442500635226567240e+00,4.726581422688866496e+00
5.447500635941106673e+00,4.111856837383527363e+00
5.452500636655646993e+00,3.803034829898194857e+00
5.457500637370186425e+00,3.687202256376792775e+00
5.462500638084725857e+00,3.665667160744931152e+00
5.467500638799266177e+00,3.836972690741617953e+00
5.472500639513805609e+00,3.916757937779891563e+00
5.477500640228345929e+00,3.927211061962680105e+00
5.482500640942885362e+00,3.584520463974911308e+00
5.487500641657424794e+00,3.304520537052439977e+00
5.492500642371965114e+00,2.889062516606998088e+00
5.497500643086504546e+00,2.330610427509157034e+00
